! Initial file:   O:\a) Research area\01 - Batteries & Supercaps\EES Research LINES\RL2018001 Advanced Cathodes\Results\Maha-Joseba\Automation_paper\XRD\LFP_06_160-15\MI-JO_LFP_221110_06.xy
! Initial format:   1
! WAVE (A):      1.54060     1.54060     1.00000
! REM : data have been multiplied by     1.0000
! X_data : 2 Theta (deg.)                                                                                                                                                                                                                                                  
! Y_data : Intensity (arb. units)                                                                                                                                                                                                                                          
!     X         Y
!--------------------------------------------------------------------------------
    10.0000      104.20000
    10.0105      103.10000
    10.0210      103.10000
    10.0316       94.00000
    10.0421       96.00000
    10.0526       98.00000
    10.0631      108.30000
    10.0737       86.80000
    10.0842       89.90000
    10.0947      104.20000
    10.1052       82.70000
    10.1157       92.90000
    10.1263       98.00000
    10.1368       94.00000
    10.1473       97.00000
    10.1578       81.70000
    10.1684      109.30000
    10.1789       97.00000
    10.1894       85.80000
    10.1999       77.60000
    10.2105      113.40000
    10.2210       91.90000
    10.2315       90.90000
    10.2420      104.20000
    10.2525       77.60000
    10.2631       66.40000
    10.2736      105.20000
    10.2841      100.10001
    10.2946      110.30000
    10.3052       88.80000
    10.3157      101.10001
    10.3262      107.20000
    10.3367       96.00000
    10.3472       96.00000
    10.3578      105.20000
    10.3683       97.00000
    10.3788       92.90000
    10.3893       88.80000
    10.3999      100.10001
    10.4104       92.90000
    10.4209      100.10001
    10.4314       97.00000
    10.4420      103.10000
    10.4525       90.90000
    10.4630       77.60000
    10.4735      106.20000
    10.4840      105.20000
    10.4946       87.80000
    10.5051       82.70000
    10.5156      108.30000
    10.5261       68.40000
    10.5367       94.00000
    10.5472       98.00000
    10.5577       95.00000
    10.5682       79.70000
    10.5787       99.10000
    10.5893       97.00000
    10.5998       91.90000
    10.6103       79.70000
    10.6208       86.80000
    10.6314       70.50000
    10.6419      105.20000
    10.6524       92.90000
    10.6629       94.00000
    10.6734       87.80000
    10.6840       95.00000
    10.6945      110.30000
    10.7050      105.20000
    10.7155       92.90000
    10.7261       89.90000
    10.7366       95.00000
    10.7471      100.10001
    10.7576       98.00000
    10.7682      105.20000
    10.7787       92.90000
    10.7892      101.10001
    10.7997       84.80000
    10.8102       78.60000
    10.8208      102.10000
    10.8313       64.30000
    10.8418       81.70000
    10.8523       94.00000
    10.8629       83.70000
    10.8734       73.50000
    10.8839       68.40000
    10.8944       79.70000
    10.9049       95.00000
    10.9155       74.60000
    10.9260      110.30000
    10.9365      106.20000
    10.9470       88.80000
    10.9576       77.60000
    10.9681       73.50000
    10.9786       77.60000
    10.9891       89.90000
    10.9996       88.80000
    11.0102       80.70000
    11.0207       92.90000
    11.0312       90.90000
    11.0417       89.90000
    11.0523       92.90000
    11.0628       74.60000
    11.0733       98.00000
    11.0838       77.60000
    11.0944       78.60000
    11.1049       84.80000
    11.1154       89.90000
    11.1259       92.90000
    11.1364       90.90000
    11.1470       91.90000
    11.1575       88.80000
    11.1680       81.70000
    11.1785       92.90000
    11.1891       72.50000
    11.1996       82.70000
    11.2101       84.80000
    11.2206       98.00000
    11.2311       78.60000
    11.2417       91.90000
    11.2522       89.90000
    11.2627       99.10000
    11.2732       82.70000
    11.2838       78.60000
    11.2943       75.60000
    11.3048       78.60000
    11.3153       84.80000
    11.3259       78.60000
    11.3364       81.70000
    11.3469       91.90000
    11.3574       83.70000
    11.3679       78.60000
    11.3785       69.40000
    11.3890       70.50000
    11.3995       77.60000
    11.4100       84.80000
    11.4206       83.70000
    11.4311       69.40000
    11.4416       82.70000
    11.4521       78.60000
    11.4626       88.80000
    11.4732       88.80000
    11.4837       67.40000
    11.4942       74.60000
    11.5047       77.60000
    11.5153       85.80000
    11.5258       64.30000
    11.5363       77.60000
    11.5468       72.50000
    11.5573      104.20000
    11.5679       89.90000
    11.5784       92.90000
    11.5889       95.00000
    11.5994       72.50000
    11.6100       71.50000
    11.6205       80.70000
    11.6310       82.70000
    11.6415       94.00000
    11.6521       83.70000
    11.6626       89.90000
    11.6731       84.80000
    11.6836       74.60000
    11.6941       98.00000
    11.7047       78.60000
    11.7152       79.70000
    11.7257       69.40000
    11.7362       83.70000
    11.7468       77.60000
    11.7573       87.80000
    11.7678       77.60000
    11.7783       79.70000
    11.7888       92.90000
    11.7994       77.60000
    11.8099       89.90000
    11.8204       66.40000
    11.8309       77.60000
    11.8415       71.50000
    11.8520       80.70000
    11.8625       76.60000
    11.8730       85.80000
    11.8835       76.60000
    11.8941       87.80000
    11.9046       81.70000
    11.9151       84.80000
    11.9256       70.50000
    11.9362       57.20000
    11.9467      102.10000
    11.9572       78.60000
    11.9677       74.60000
    11.9783       81.70000
    11.9888       76.60000
    11.9993       79.70000
    12.0098       78.60000
    12.0203       84.80000
    12.0309       59.20000
    12.0414       82.70000
    12.0519       71.50000
    12.0624       72.50000
    12.0730       69.40000
    12.0835       83.70000
    12.0940       84.80000
    12.1045       66.40000
    12.1150       83.70000
    12.1256       80.70000
    12.1361       89.90000
    12.1466       77.60000
    12.1571       66.40000
    12.1677       71.50000
    12.1782       72.50000
    12.1887       69.40000
    12.1992       64.30000
    12.2098       72.50000
    12.2203       87.80000
    12.2308       72.50000
    12.2413       63.30000
    12.2518       64.30000
    12.2624       60.30000
    12.2729       70.50000
    12.2834       72.50000
    12.2939       90.90000
    12.3045       70.50000
    12.3150       70.50000
    12.3255       66.40000
    12.3360       70.50000
    12.3465       73.50000
    12.3571       57.20000
    12.3676       63.30000
    12.3781       77.60000
    12.3886       74.60000
    12.3992       80.70000
    12.4097       72.50000
    12.4202       69.40000
    12.4307       75.60000
    12.4412       62.30000
    12.4518       61.30000
    12.4623       61.30000
    12.4728       74.60000
    12.4833       76.60000
    12.4939       78.60000
    12.5044       83.70000
    12.5149       82.70000
    12.5254       77.60000
    12.5360       79.70000
    12.5465       59.20000
    12.5570       62.30000
    12.5675       85.80000
    12.5780       67.40000
    12.5886       73.50000
    12.5991       70.50000
    12.6096       73.50000
    12.6201       65.40000
    12.6307       79.70000
    12.6412       66.40000
    12.6517       71.50000
    12.6622       80.70000
    12.6727       79.70000
    12.6833       84.80000
    12.6938       50.00000
    12.7043       73.50000
    12.7148       78.60000
    12.7254       52.10000
    12.7359       66.40000
    12.7464       73.50000
    12.7569       75.60000
    12.7674       69.40000
    12.7780       67.40000
    12.7885       76.60000
    12.7990       61.30000
    12.8095       85.80000
    12.8201       70.50000
    12.8306       59.20000
    12.8411       70.50000
    12.8516       63.30000
    12.8622       75.60000
    12.8727       84.80000
    12.8832       62.30000
    12.8937       75.60000
    12.9042       78.60000
    12.9148       54.10000
    12.9253       73.50000
    12.9358       72.50000
    12.9463       76.60000
    12.9569       78.60000
    12.9674       55.10000
    12.9779       75.60000
    12.9884       65.40000
    12.9989       76.60000
    13.0095       62.30000
    13.0200       84.80000
    13.0305       69.40000
    13.0410       69.40000
    13.0516       69.40000
    13.0621       78.60000
    13.0726       81.70000
    13.0831       71.50000
    13.0937       73.50000
    13.1042       69.40000
    13.1147       72.50000
    13.1252       79.70000
    13.1357       63.30000
    13.1463       65.40000
    13.1568       75.60000
    13.1673       87.80000
    13.1778       80.70000
    13.1884       85.80000
    13.1989       76.60000
    13.2094       68.40000
    13.2199       78.60000
    13.2304       62.30000
    13.2410       66.40000
    13.2515       69.40000
    13.2620       64.30000
    13.2725       72.50000
    13.2831       56.20000
    13.2936       62.30000
    13.3041       75.60000
    13.3146       63.30000
    13.3251       60.30000
    13.3357       77.60000
    13.3462       73.50000
    13.3567       68.40000
    13.3672       62.30000
    13.3778       63.30000
    13.3883       63.30000
    13.3988       67.40000
    13.4093       69.40000
    13.4199       71.50000
    13.4304       56.20000
    13.4409       80.70000
    13.4514       52.10000
    13.4619       63.30000
    13.4725       65.40000
    13.4830       67.40000
    13.4935       62.30000
    13.5040       64.30000
    13.5146       69.40000
    13.5251       80.70000
    13.5356       66.40000
    13.5461       68.40000
    13.5566       71.50000
    13.5672       73.50000
    13.5777       68.40000
    13.5882       71.50000
    13.5987       84.80000
    13.6093       72.50000
    13.6198       59.20000
    13.6303       67.40000
    13.6408       55.10000
    13.6514       71.50000
    13.6619       63.30000
    13.6724       57.20000
    13.6829       73.50000
    13.6934       65.40000
    13.7040       63.30000
    13.7145       53.10000
    13.7250       53.10000
    13.7355       58.20000
    13.7461       63.30000
    13.7566       76.60000
    13.7671       77.60000
    13.7776       60.30000
    13.7881       57.20000
    13.7987       51.10000
    13.8092       78.60000
    13.8197       62.30000
    13.8302       78.60000
    13.8408       68.40000
    13.8513       57.20000
    13.8618       59.20000
    13.8723       72.50000
    13.8828       48.00000
    13.8934       74.60000
    13.9039       56.20000
    13.9144       59.20000
    13.9249       54.10000
    13.9355       65.40000
    13.9460       64.30000
    13.9565       72.50000
    13.9670       58.20000
    13.9776       58.20000
    13.9881       63.30000
    13.9986       56.20000
    14.0091       51.10000
    14.0196       64.30000
    14.0302       60.30000
    14.0407       84.80000
    14.0512       65.40000
    14.0617       62.30000
    14.0723       62.30000
    14.0828       76.60000
    14.0933       60.30000
    14.1038       64.30000
    14.1143       71.50000
    14.1249       57.20000
    14.1354       78.60000
    14.1459       70.50000
    14.1564       62.30000
    14.1670       75.60000
    14.1775       63.30000
    14.1880       55.10000
    14.1985       46.00000
    14.2090       52.10000
    14.2196       61.30000
    14.2301       56.20000
    14.2406       57.20000
    14.2511       46.00000
    14.2617       67.40000
    14.2722       69.40000
    14.2827       69.40000
    14.2932       65.40000
    14.3038       77.60000
    14.3143       78.60000
    14.3248       58.20000
    14.3353       59.20000
    14.3458       58.20000
    14.3564       61.30000
    14.3669       49.00000
    14.3774       70.50000
    14.3879       58.20000
    14.3985       68.40000
    14.4090       57.20000
    14.4195       60.30000
    14.4300       61.30000
    14.4405       61.30000
    14.4511       65.40000
    14.4616       55.10000
    14.4721       66.40000
    14.4826       73.50000
    14.4932       71.50000
    14.5037       70.50000
    14.5142       60.30000
    14.5247       55.10000
    14.5353       57.20000
    14.5458       57.20000
    14.5563       65.40000
    14.5668       59.20000
    14.5773       75.60000
    14.5879       62.30000
    14.5984       63.30000
    14.6089       55.10000
    14.6194       75.60000
    14.6300       62.30000
    14.6405       74.60000
    14.6510       58.20000
    14.6615       60.30000
    14.6720       49.00000
    14.6826       78.60000
    14.6931       57.20000
    14.7036       51.10000
    14.7141       56.20000
    14.7247       56.20000
    14.7352       53.10000
    14.7457       57.20000
    14.7562       65.40000
    14.7667       55.10000
    14.7773       67.40000
    14.7878       47.00000
    14.7983       55.10000
    14.8088       68.40000
    14.8194       51.10000
    14.8299       48.00000
    14.8404       43.90000
    14.8509       64.30000
    14.8615       58.20000
    14.8720       55.10000
    14.8825       51.10000
    14.8930       69.40000
    14.9035       72.50000
    14.9141       48.00000
    14.9246       59.20000
    14.9351       61.30000
    14.9456       57.20000
    14.9562       61.30000
    14.9667       62.30000
    14.9772       50.00000
    14.9877       48.00000
    14.9982       54.10000
    15.0088       54.10000
    15.0193       68.40000
    15.0298       50.00000
    15.0403       67.40000
    15.0509       64.30000
    15.0614       55.10000
    15.0719       52.10000
    15.0824       69.40000
    15.0929       62.30000
    15.1035       64.30000
    15.1140       55.10000
    15.1245       61.30000
    15.1350       55.10000
    15.1456       61.30000
    15.1561       64.30000
    15.1666       70.50000
    15.1771       56.20000
    15.1877       52.10000
    15.1982       50.00000
    15.2087       63.30000
    15.2192       48.00000
    15.2297       53.10000
    15.2403       66.40000
    15.2508       53.10000
    15.2613       47.00000
    15.2718       59.20000
    15.2824       49.00000
    15.2929       58.20000
    15.3034       52.10000
    15.3139       64.30000
    15.3244       52.10000
    15.3350       60.30000
    15.3455       69.40000
    15.3560       58.20000
    15.3665       71.50000
    15.3771       59.20000
    15.3876       55.10000
    15.3981       51.10000
    15.4086       60.30000
    15.4192       63.30000
    15.4297       59.20000
    15.4402       59.20000
    15.4507       64.30000
    15.4612       56.20000
    15.4718       56.20000
    15.4823       50.00000
    15.4928       61.30000
    15.5033       54.10000
    15.5139       63.30000
    15.5244       44.90000
    15.5349       47.00000
    15.5454       60.30000
    15.5559       44.90000
    15.5665       58.20000
    15.5770       67.40000
    15.5875       60.30000
    15.5980       47.00000
    15.6086       51.10000
    15.6191       61.30000
    15.6296       56.20000
    15.6401       58.20000
    15.6506       48.00000
    15.6612       49.00000
    15.6717       48.00000
    15.6822       57.20000
    15.6927       51.10000
    15.7033       60.30000
    15.7138       61.30000
    15.7243       62.30000
    15.7348       52.10000
    15.7454       60.30000
    15.7559       53.10000
    15.7664       62.30000
    15.7769       52.10000
    15.7874       52.10000
    15.7980       59.20000
    15.8085       56.20000
    15.8190       61.30000
    15.8295       48.00000
    15.8401       51.10000
    15.8506       64.30000
    15.8611       62.30000
    15.8716       62.30000
    15.8821       67.40000
    15.8927       65.40000
    15.9032       58.20000
    15.9137       71.50000
    15.9242       56.20000
    15.9348       43.90000
    15.9453       60.30000
    15.9558       82.70000
    15.9663       65.40000
    15.9768       44.90000
    15.9874       54.10000
    15.9979       56.20000
    16.0084       47.00000
    16.0189       65.40000
    16.0295       43.90000
    16.0400       61.30000
    16.0505       59.20000
    16.0610       58.20000
    16.0716       57.20000
    16.0821       61.30000
    16.0926       64.30000
    16.1031       61.30000
    16.1136       49.00000
    16.1242       49.00000
    16.1347       60.30000
    16.1452       50.00000
    16.1557       59.20000
    16.1663       56.20000
    16.1768       50.00000
    16.1873       50.00000
    16.1978       57.20000
    16.2083       69.40000
    16.2189       64.30000
    16.2294       55.10000
    16.2399       52.10000
    16.2504       58.20000
    16.2610       54.10000
    16.2715       62.30000
    16.2820       51.10000
    16.2925       61.30000
    16.3031       68.40000
    16.3136       55.10000
    16.3241       59.20000
    16.3346       60.30000
    16.3451       65.40000
    16.3557       60.30000
    16.3662       47.00000
    16.3767       44.90000
    16.3872       48.00000
    16.3978       50.00000
    16.4083       61.30000
    16.4188       58.20000
    16.4293       66.40000
    16.4398       46.00000
    16.4504       67.40000
    16.4609       65.40000
    16.4714       53.10000
    16.4819       58.20000
    16.4925       53.10000
    16.5030       55.10000
    16.5135       70.50000
    16.5240       58.20000
    16.5345       57.20000
    16.5451       68.40000
    16.5556       58.20000
    16.5661       50.00000
    16.5766       63.30000
    16.5872       62.30000
    16.5977       47.00000
    16.6082       66.40000
    16.6187       52.10000
    16.6293       43.90000
    16.6398       53.10000
    16.6503       47.00000
    16.6608       46.00000
    16.6713       49.00000
    16.6819       59.20000
    16.6924       56.20000
    16.7029       50.00000
    16.7134       66.40000
    16.7240       69.40000
    16.7345       48.00000
    16.7450       54.10000
    16.7555       69.40000
    16.7660       61.30000
    16.7766       46.00000
    16.7871       57.20000
    16.7976       54.10000
    16.8081       73.50000
    16.8187       70.50000
    16.8292       61.30000
    16.8397       74.60000
    16.8502       57.20000
    16.8607       64.30000
    16.8713       71.50000
    16.8818       81.70000
    16.8923       67.40000
    16.9028       85.80000
    16.9134       75.60000
    16.9239       94.00000
    16.9344       86.80000
    16.9449      103.10000
    16.9555       97.00000
    16.9660       88.80000
    16.9765       94.00000
    16.9870      113.40000
    16.9975      124.60000
    17.0081      118.50000
    17.0186      149.10001
    17.0291      131.70000
    17.0396      176.70000
    17.0502      188.90001
    17.0607      239.00000
    17.0712      271.70001
    17.0817      290.00000
    17.0922      368.70001
    17.1028      371.70001
    17.1133      434.00000
    17.1238      540.20001
    17.1343      610.70001
    17.1449      631.10004
    17.1554      668.90002
    17.1659      755.70001
    17.1764      753.70001
    17.1870      767.00000
    17.1975      784.29999
    17.2080      706.70001
    17.2185      697.50000
    17.2290      594.40002
    17.2396      543.29999
    17.2501      507.60001
    17.2606      426.89999
    17.2711      356.39999
    17.2817      277.80002
    17.2922      289.00000
    17.3027      203.20001
    17.3132      198.10001
    17.3237      177.70000
    17.3343      156.30000
    17.3448      157.30000
    17.3553      129.70000
    17.3658      120.50000
    17.3764      102.10000
    17.3869      100.10001
    17.3974       88.80000
    17.4079       82.70000
    17.4184       79.70000
    17.4290       66.40000
    17.4395       67.40000
    17.4500       79.70000
    17.4605       72.50000
    17.4711       66.40000
    17.4816       71.50000
    17.4921       59.20000
    17.5026       66.40000
    17.5132       65.40000
    17.5237       61.30000
    17.5342       77.60000
    17.5447       64.30000
    17.5552       44.90000
    17.5658       63.30000
    17.5763       55.10000
    17.5868       61.30000
    17.5973       63.30000
    17.6079       46.00000
    17.6184       57.20000
    17.6289       61.30000
    17.6394       55.10000
    17.6499       51.10000
    17.6605       67.40000
    17.6710       60.30000
    17.6815       51.10000
    17.6920       69.40000
    17.7026       55.10000
    17.7131       62.30000
    17.7236       58.20000
    17.7341       50.00000
    17.7447       42.90000
    17.7552       54.10000
    17.7657       70.50000
    17.7762       51.10000
    17.7867       51.10000
    17.7973       44.90000
    17.8078       51.10000
    17.8183       54.10000
    17.8288       44.90000
    17.8394       38.80000
    17.8499       55.10000
    17.8604       54.10000
    17.8709       47.00000
    17.8814       41.90000
    17.8920       60.30000
    17.9025       57.20000
    17.9130       46.00000
    17.9235       41.90000
    17.9341       40.80000
    17.9446       50.00000
    17.9551       56.20000
    17.9656       42.90000
    17.9761       43.90000
    17.9867       44.90000
    17.9972       48.00000
    18.0077       54.10000
    18.0182       59.20000
    18.0288       49.00000
    18.0393       56.20000
    18.0498       55.10000
    18.0603       43.90000
    18.0709       43.90000
    18.0814       52.10000
    18.0919       37.80000
    18.1024       50.00000
    18.1129       47.00000
    18.1235       51.10000
    18.1340       54.10000
    18.1445       50.00000
    18.1550       46.00000
    18.1656       35.70000
    18.1761       42.90000
    18.1866       42.90000
    18.1971       43.90000
    18.2076       50.00000
    18.2182       62.30000
    18.2287       53.10000
    18.2392       46.00000
    18.2497       55.10000
    18.2603       48.00000
    18.2708       46.00000
    18.2813       61.30000
    18.2918       40.80000
    18.3023       52.10000
    18.3129       61.30000
    18.3234       41.90000
    18.3339       43.90000
    18.3444       27.60000
    18.3550       43.90000
    18.3655       55.10000
    18.3760       59.20000
    18.3865       42.90000
    18.3971       41.90000
    18.4076       51.10000
    18.4181       46.00000
    18.4286       57.20000
    18.4391       58.20000
    18.4497       43.90000
    18.4602       42.90000
    18.4707       46.00000
    18.4812       35.70000
    18.4918       46.00000
    18.5023       48.00000
    18.5128       46.00000
    18.5233       36.80000
    18.5338       35.70000
    18.5444       39.80000
    18.5549       53.10000
    18.5654       40.80000
    18.5759       48.00000
    18.5865       44.90000
    18.5970       47.00000
    18.6075       41.90000
    18.6180       46.00000
    18.6286       49.00000
    18.6391       44.90000
    18.6496       43.90000
    18.6601       46.00000
    18.6706       56.20000
    18.6812       34.70000
    18.6917       37.80000
    18.7022       36.80000
    18.7127       29.60000
    18.7233       33.70000
    18.7338       55.10000
    18.7443       38.80000
    18.7548       49.00000
    18.7653       50.00000
    18.7759       48.00000
    18.7864       34.70000
    18.7969       44.90000
    18.8074       51.10000
    18.8180       40.80000
    18.8285       46.00000
    18.8390       39.80000
    18.8495       46.00000
    18.8600       41.90000
    18.8706       42.90000
    18.8811       27.60000
    18.8916       49.00000
    18.9021       50.00000
    18.9127       47.00000
    18.9232       46.00000
    18.9337       34.70000
    18.9442       34.70000
    18.9548       41.90000
    18.9653       36.80000
    18.9758       44.90000
    18.9863       44.90000
    18.9968       39.80000
    19.0074       42.90000
    19.0179       52.10000
    19.0284       46.00000
    19.0389       48.00000
    19.0495       51.10000
    19.0600       37.80000
    19.0705       40.80000
    19.0810       26.60000
    19.0915       49.00000
    19.1021       44.90000
    19.1126       54.10000
    19.1231       47.00000
    19.1336       58.20000
    19.1442       50.00000
    19.1547       36.80000
    19.1652       42.90000
    19.1757       44.90000
    19.1862       42.90000
    19.1968       39.80000
    19.2073       50.00000
    19.2178       34.70000
    19.2283       23.50000
    19.2389       39.80000
    19.2494       43.90000
    19.2599       43.90000
    19.2704       56.20000
    19.2810       49.00000
    19.2915       49.00000
    19.3020       52.10000
    19.3125       50.00000
    19.3230       61.30000
    19.3336       52.10000
    19.3441       42.90000
    19.3546       40.80000
    19.3651       47.00000
    19.3757       54.10000
    19.3862       46.00000
    19.3967       56.20000
    19.4072       42.90000
    19.4177       35.70000
    19.4283       33.70000
    19.4388       52.10000
    19.4493       52.10000
    19.4598       67.40000
    19.4704       40.80000
    19.4809       27.60000
    19.4914       65.40000
    19.5019       42.90000
    19.5125       47.00000
    19.5230       53.10000
    19.5335       57.20000
    19.5440       42.90000
    19.5545       46.00000
    19.5651       39.80000
    19.5756       51.10000
    19.5861       44.90000
    19.5966       42.90000
    19.6072       52.10000
    19.6177       31.70000
    19.6282       37.80000
    19.6387       37.80000
    19.6492       51.10000
    19.6598       48.00000
    19.6703       46.00000
    19.6808       43.90000
    19.6913       44.90000
    19.7019       47.00000
    19.7124       37.80000
    19.7229       38.80000
    19.7334       53.10000
    19.7439       49.00000
    19.7545       44.90000
    19.7650       38.80000
    19.7755       52.10000
    19.7860       51.10000
    19.7966       60.30000
    19.8071       51.10000
    19.8176       46.00000
    19.8281       49.00000
    19.8387       47.00000
    19.8492       50.00000
    19.8597       40.80000
    19.8702       46.00000
    19.8807       44.90000
    19.8913       31.70000
    19.9018       41.90000
    19.9123       42.90000
    19.9228       40.80000
    19.9334       55.10000
    19.9439       48.00000
    19.9544       35.70000
    19.9649       39.80000
    19.9754       43.90000
    19.9860       46.00000
    19.9965       40.80000
    20.0070       30.60000
    20.0175       38.80000
    20.0281       48.00000
    20.0386       46.00000
    20.0491       48.00000
    20.0596       51.10000
    20.0701       37.80000
    20.0807       55.10000
    20.0912       58.20000
    20.1017       39.80000
    20.1122       40.80000
    20.1228       51.10000
    20.1333       44.90000
    20.1438       46.00000
    20.1543       52.10000
    20.1649       49.00000
    20.1754       42.90000
    20.1859       54.10000
    20.1964       59.20000
    20.2069       50.00000
    20.2175       49.00000
    20.2280       48.00000
    20.2385       35.70000
    20.2490       52.10000
    20.2596       59.20000
    20.2701       47.00000
    20.2806       60.30000
    20.2911       54.10000
    20.3016       34.70000
    20.3122       42.90000
    20.3227       56.20000
    20.3332       52.10000
    20.3437       51.10000
    20.3543       58.20000
    20.3648       40.80000
    20.3753       52.10000
    20.3858       44.90000
    20.3964       55.10000
    20.4069       50.00000
    20.4174       67.40000
    20.4279       65.40000
    20.4384       69.40000
    20.4490       75.60000
    20.4595       69.40000
    20.4700       64.30000
    20.4805       74.60000
    20.4911       63.30000
    20.5016       77.60000
    20.5121       81.70000
    20.5226       98.00000
    20.5331       81.70000
    20.5437      110.30000
    20.5542      105.20000
    20.5647       95.00000
    20.5752      119.50000
    20.5858      131.70000
    20.5963      125.60000
    20.6068      167.50000
    20.6173      172.60001
    20.6278      191.00000
    20.6384      246.10001
    20.6489      301.30002
    20.6594      281.89999
    20.6699      366.60001
    20.6805      431.00000
    20.6910      482.00000
    20.7015      575.00000
    20.7120      715.90002
    20.7226      800.70001
    20.7331      937.50000
    20.7436      977.29999
    20.7541     1108.00000
    20.7646     1289.80005
    20.7752     1221.40002
    20.7857     1340.90002
    20.7962     1234.70007
    20.8067     1197.90002
    20.8173     1147.90002
    20.8278     1024.30005
    20.8383      923.20001
    20.8488      908.90002
    20.8593      705.70001
    20.8699      539.20001
    20.8804      505.50000
    20.8909      393.20001
    20.9014      375.80002
    20.9120      308.39999
    20.9225      277.80002
    20.9330      264.50000
    20.9435      198.10001
    20.9541      201.20001
    20.9646      169.50000
    20.9751      105.20000
    20.9856      137.90001
    20.9961      129.70000
    21.0067      130.70000
    21.0172      101.10001
    21.0277      105.20000
    21.0382       94.00000
    21.0488       92.90000
    21.0593       81.70000
    21.0698       64.30000
    21.0803       89.90000
    21.0908       86.80000
    21.1014       85.80000
    21.1119       53.10000
    21.1224       69.40000
    21.1329       63.30000
    21.1435       55.10000
    21.1540       70.50000
    21.1645       53.10000
    21.1750       57.20000
    21.1855       58.20000
    21.1961       56.20000
    21.2066       41.90000
    21.2171       41.90000
    21.2276       43.90000
    21.2382       48.00000
    21.2487       54.10000
    21.2592       53.10000
    21.2697       59.20000
    21.2803       52.10000
    21.2908       60.30000
    21.3013       50.00000
    21.3118       43.90000
    21.3223       48.00000
    21.3329       46.00000
    21.3434       44.90000
    21.3539       34.70000
    21.3644       47.00000
    21.3750       36.80000
    21.3855       35.70000
    21.3960       43.90000
    21.4065       46.00000
    21.4170       39.80000
    21.4276       33.70000
    21.4381       48.00000
    21.4486       40.80000
    21.4591       43.90000
    21.4697       56.20000
    21.4802       41.90000
    21.4907       49.00000
    21.5012       53.10000
    21.5117       37.80000
    21.5223       46.00000
    21.5328       44.90000
    21.5433       44.90000
    21.5538       52.10000
    21.5644       44.90000
    21.5749       38.80000
    21.5854       48.00000
    21.5959       40.80000
    21.6065       44.90000
    21.6170       46.00000
    21.6275       50.00000
    21.6380       50.00000
    21.6485       47.00000
    21.6591       41.90000
    21.6696       33.70000
    21.6801       50.00000
    21.6906       40.80000
    21.7012       44.90000
    21.7117       31.70000
    21.7222       55.10000
    21.7327       37.80000
    21.7432       39.80000
    21.7538       37.80000
    21.7643       46.00000
    21.7748       51.10000
    21.7853       50.00000
    21.7959       47.00000
    21.8064       40.80000
    21.8169       52.10000
    21.8274       46.00000
    21.8380       43.90000
    21.8485       37.80000
    21.8590       46.00000
    21.8695       53.10000
    21.8800       32.70000
    21.8906       37.80000
    21.9011       41.90000
    21.9116       42.90000
    21.9221       44.90000
    21.9327       43.90000
    21.9432       37.80000
    21.9537       52.10000
    21.9642       42.90000
    21.9747       35.70000
    21.9853       59.20000
    21.9958       46.00000
    22.0063       39.80000
    22.0168       46.00000
    22.0274       54.10000
    22.0379       53.10000
    22.0484       42.90000
    22.0589       48.00000
    22.0694       35.70000
    22.0800       46.00000
    22.0905       33.70000
    22.1010       51.10000
    22.1115       32.70000
    22.1221       41.90000
    22.1326       52.10000
    22.1431       39.80000
    22.1536       44.90000
    22.1642       57.20000
    22.1747       46.00000
    22.1852       56.20000
    22.1957       40.80000
    22.2062       46.00000
    22.2168       30.60000
    22.2273       52.10000
    22.2378       49.00000
    22.2483       46.00000
    22.2589       38.80000
    22.2694       41.90000
    22.2799       46.00000
    22.2904       58.20000
    22.3009       48.00000
    22.3115       46.00000
    22.3220       36.80000
    22.3325       51.10000
    22.3430       40.80000
    22.3536       51.10000
    22.3641       55.10000
    22.3746       54.10000
    22.3851       47.00000
    22.3956       60.30000
    22.4062       49.00000
    22.4167       57.20000
    22.4272       63.30000
    22.4377       46.00000
    22.4483       64.30000
    22.4588       52.10000
    22.4693       53.10000
    22.4798       63.30000
    22.4904       72.50000
    22.5009       71.50000
    22.5114       68.40000
    22.5219       91.90000
    22.5324       84.80000
    22.5430       87.80000
    22.5535       99.10000
    22.5640      104.20000
    22.5745      109.30000
    22.5851      124.60000
    22.5956      153.20000
    22.6061      183.80000
    22.6166      181.80000
    22.6271      221.60001
    22.6377      218.50000
    22.6482      265.50000
    22.6587      268.60001
    22.6692      320.70001
    22.6798      314.50000
    22.6903      381.89999
    22.7008      448.30002
    22.7113      428.89999
    22.7219      443.20001
    22.7324      470.80002
    22.7429      427.89999
    22.7534      484.10001
    22.7639      426.89999
    22.7745      417.70001
    22.7850      407.49997
    22.7955      354.39999
    22.8060      344.20001
    22.8166      313.50000
    22.8271      282.89999
    22.8376      253.30000
    22.8481      195.10001
    22.8586      184.80000
    22.8692      185.90001
    22.8797      164.40001
    22.8902      102.10000
    22.9007      144.00000
    22.9113      117.40000
    22.9218      101.10001
    22.9323       84.80000
    22.9428       72.50000
    22.9533       84.80000
    22.9639       62.30000
    22.9744       58.20000
    22.9849       50.00000
    22.9954       70.50000
    23.0060       60.30000
    23.0165       60.30000
    23.0270       70.50000
    23.0375       54.10000
    23.0481       52.10000
    23.0586       47.00000
    23.0691       65.40000
    23.0796       59.20000
    23.0901       43.90000
    23.1007       56.20000
    23.1112       41.90000
    23.1217       46.00000
    23.1322       31.70000
    23.1428       60.30000
    23.1533       42.90000
    23.1638       63.30000
    23.1743       42.90000
    23.1848       49.00000
    23.1954       40.80000
    23.2059       41.90000
    23.2164       43.90000
    23.2269       39.80000
    23.2375       37.80000
    23.2480       59.20000
    23.2585       49.00000
    23.2690       35.70000
    23.2795       34.70000
    23.2901       53.10000
    23.3006       52.10000
    23.3111       39.80000
    23.3216       41.90000
    23.3322       49.00000
    23.3427       42.90000
    23.3532       27.60000
    23.3637       44.90000
    23.3743       43.90000
    23.3848       43.90000
    23.3953       30.60000
    23.4058       43.90000
    23.4163       48.00000
    23.4269       37.80000
    23.4374       57.20000
    23.4479       43.90000
    23.4584       35.70000
    23.4690       47.00000
    23.4795       51.10000
    23.4900       46.00000
    23.5005       40.80000
    23.5110       43.90000
    23.5216       40.80000
    23.5321       52.10000
    23.5426       42.90000
    23.5531       31.70000
    23.5637       38.80000
    23.5742       44.90000
    23.5847       36.80000
    23.5952       32.70000
    23.6058       33.70000
    23.6163       36.80000
    23.6268       37.80000
    23.6373       33.70000
    23.6478       38.80000
    23.6584       46.00000
    23.6689       30.60000
    23.6794       40.80000
    23.6899       30.60000
    23.7005       53.10000
    23.7110       36.80000
    23.7215       64.30000
    23.7320       47.00000
    23.7425       35.70000
    23.7531       35.70000
    23.7636       37.80000
    23.7741       56.20000
    23.7846       49.00000
    23.7952       34.70000
    23.8057       35.70000
    23.8162       62.30000
    23.8267       57.20000
    23.8372       58.20000
    23.8478       47.00000
    23.8583       59.20000
    23.8688       56.20000
    23.8793       60.30000
    23.8899       65.40000
    23.9004       69.40000
    23.9109       53.10000
    23.9214       58.20000
    23.9320       76.60000
    23.9425       80.70000
    23.9530       71.50000
    23.9635       86.80000
    23.9740      113.40000
    23.9846       92.90000
    23.9951      119.50000
    24.0056      118.50000
    24.0161      135.80000
    24.0267      134.80000
    24.0372      165.40001
    24.0477      177.70000
    24.0582      191.00000
    24.0687      191.00000
    24.0793      187.90001
    24.0898      169.50000
    24.1003      188.90001
    24.1108      156.30000
    24.1214      161.40001
    24.1319      175.70000
    24.1424      147.10001
    24.1529      139.90001
    24.1635      119.50000
    24.1740      117.40000
    24.1845       95.00000
    24.1950       75.60000
    24.2055       87.80000
    24.2161       71.50000
    24.2266       84.80000
    24.2371       63.30000
    24.2476       62.30000
    24.2582       42.90000
    24.2687       65.40000
    24.2792       48.00000
    24.2897       57.20000
    24.3002       49.00000
    24.3108       43.90000
    24.3213       41.90000
    24.3318       40.80000
    24.3423       44.90000
    24.3529       40.80000
    24.3634       38.80000
    24.3739       29.60000
    24.3844       40.80000
    24.3949       46.00000
    24.4055       59.20000
    24.4160       38.80000
    24.4265       48.00000
    24.4370       43.90000
    24.4476       41.90000
    24.4581       48.00000
    24.4686       36.80000
    24.4791       27.60000
    24.4897       36.80000
    24.5002       32.70000
    24.5107       42.90000
    24.5212       39.80000
    24.5317       39.80000
    24.5423       39.80000
    24.5528       55.10000
    24.5633       33.70000
    24.5738       32.70000
    24.5844       37.80000
    24.5949       54.10000
    24.6054       55.10000
    24.6159       36.80000
    24.6264       23.50000
    24.6370       26.60000
    24.6475       36.80000
    24.6580       33.70000
    24.6685       34.70000
    24.6791       50.00000
    24.6896       38.80000
    24.7001       26.60000
    24.7106       31.70000
    24.7211       38.80000
    24.7317       41.90000
    24.7422       32.70000
    24.7527       42.90000
    24.7632       47.00000
    24.7738       38.80000
    24.7843       44.90000
    24.7948       48.00000
    24.8053       48.00000
    24.8159       41.90000
    24.8264       39.80000
    24.8369       43.90000
    24.8474       37.80000
    24.8579       58.20000
    24.8685       51.10000
    24.8790       40.80000
    24.8895       33.70000
    24.9000       49.00000
    24.9106       47.00000
    24.9211       47.00000
    24.9316       48.00000
    24.9421       55.10000
    24.9526       54.10000
    24.9632       43.90000
    24.9737       47.00000
    24.9842       39.80000
    24.9947       36.80000
    25.0053       37.80000
    25.0158       51.10000
    25.0263       34.70000
    25.0368       56.20000
    25.0474       44.90000
    25.0579       52.10000
    25.0684       50.00000
    25.0789       61.30000
    25.0894       43.90000
    25.1000       54.10000
    25.1105       51.10000
    25.1210       51.10000
    25.1315       60.30000
    25.1421       56.20000
    25.1526       61.30000
    25.1631       65.40000
    25.1736       56.20000
    25.1841       73.50000
    25.1947       49.00000
    25.2052       74.60000
    25.2157       57.20000
    25.2262       88.80000
    25.2368       72.50000
    25.2473       74.60000
    25.2578       81.70000
    25.2683       92.90000
    25.2788       99.10000
    25.2894       75.60000
    25.2999       96.00000
    25.3104      101.10001
    25.3209      110.30000
    25.3315      120.50000
    25.3420      122.50000
    25.3525      132.80000
    25.3630      167.50000
    25.3736      157.30000
    25.3841      160.30000
    25.3946      218.50000
    25.4051      243.10001
    25.4156      262.50000
    25.4262      272.70001
    25.4367      319.60001
    25.4472      345.20001
    25.4577      401.30002
    25.4683      452.39999
    25.4788      494.30002
    25.4893      592.29999
    25.4998      650.50000
    25.5103      799.60004
    25.5209      897.70001
    25.5314      975.29999
    25.5419     1177.50000
    25.5524     1229.59998
    25.5630     1275.50000
    25.5735     1440.00000
    25.5840     1517.59998
    25.5945     1562.50000
    25.6050     1571.70007
    25.6156     1565.59998
    25.6261     1588.00000
    25.6366     1479.80005
    25.6471     1395.00000
    25.6577     1251.00000
    25.6682     1172.40002
    25.6787     1068.20007
    25.6892      908.90002
    25.6998      796.60004
    25.7103      746.50000
    25.7208      705.70001
    25.7313      542.29999
    25.7418      470.80002
    25.7524      442.20001
    25.7629      355.39999
    25.7734      343.10001
    25.7839      302.30002
    25.7945      262.50000
    25.8050      253.30000
    25.8155      219.60001
    25.8260      185.90001
    25.8365      182.80000
    25.8471      163.40001
    25.8576      148.10001
    25.8681      154.20000
    25.8786      129.70000
    25.8892      108.30000
    25.8997      122.50000
    25.9102       91.90000
    25.9207       96.00000
    25.9313       74.60000
    25.9418       85.80000
    25.9523       77.60000
    25.9628       87.80000
    25.9733       75.60000
    25.9839       79.70000
    25.9944       68.40000
    26.0049       69.40000
    26.0154       56.20000
    26.0260       64.30000
    26.0365       54.10000
    26.0470       63.30000
    26.0575       63.30000
    26.0680       69.40000
    26.0786       56.20000
    26.0891       54.10000
    26.0996       52.10000
    26.1101       62.30000
    26.1207       59.20000
    26.1312       52.10000
    26.1417       50.00000
    26.1522       46.00000
    26.1627       47.00000
    26.1733       51.10000
    26.1838       43.90000
    26.1943       37.80000
    26.2048       36.80000
    26.2154       38.80000
    26.2259       42.90000
    26.2364       38.80000
    26.2469       37.80000
    26.2575       44.90000
    26.2680       37.80000
    26.2785       43.90000
    26.2890       37.80000
    26.2995       42.90000
    26.3101       41.90000
    26.3206       40.80000
    26.3311       38.80000
    26.3416       31.70000
    26.3522       51.10000
    26.3627       48.00000
    26.3732       49.00000
    26.3837       31.70000
    26.3942       35.70000
    26.4048       38.80000
    26.4153       34.70000
    26.4258       37.80000
    26.4363       31.70000
    26.4469       41.90000
    26.4574       42.90000
    26.4679       46.00000
    26.4784       31.70000
    26.4889       33.70000
    26.4995       41.90000
    26.5100       32.70000
    26.5205       39.80000
    26.5310       42.90000
    26.5416       34.70000
    26.5521       43.90000
    26.5626       30.60000
    26.5731       40.80000
    26.5837       27.60000
    26.5942       34.70000
    26.6047       35.70000
    26.6152       33.70000
    26.6257       41.90000
    26.6363       40.80000
    26.6468       31.70000
    26.6573       35.70000
    26.6678       32.70000
    26.6784       52.10000
    26.6889       33.70000
    26.6994       39.80000
    26.7099       37.80000
    26.7204       31.70000
    26.7310       25.50000
    26.7415       38.80000
    26.7520       33.70000
    26.7625       31.70000
    26.7731       35.70000
    26.7836       30.60000
    26.7941       37.80000
    26.8046       41.90000
    26.8152       34.70000
    26.8257       41.90000
    26.8362       32.70000
    26.8467       30.60000
    26.8572       29.60000
    26.8678       27.60000
    26.8783       34.70000
    26.8888       22.50000
    26.8993       37.80000
    26.9099       38.80000
    26.9204       39.80000
    26.9309       28.60000
    26.9414       33.70000
    26.9519       36.80000
    26.9625       33.70000
    26.9730       37.80000
    26.9835       36.80000
    26.9940       31.70000
    27.0046       41.90000
    27.0151       36.80000
    27.0256       37.80000
    27.0361       28.60000
    27.0466       38.80000
    27.0572       47.00000
    27.0677       31.70000
    27.0782       31.70000
    27.0887       42.90000
    27.0993       39.80000
    27.1098       39.80000
    27.1203       38.80000
    27.1308       36.80000
    27.1414       39.80000
    27.1519       36.80000
    27.1624       25.50000
    27.1729       42.90000
    27.1834       34.70000
    27.1940       30.60000
    27.2045       32.70000
    27.2150       32.70000
    27.2255       31.70000
    27.2361       27.60000
    27.2466       35.70000
    27.2571       37.80000
    27.2676       46.00000
    27.2781       30.60000
    27.2887       32.70000
    27.2992       42.90000
    27.3097       36.80000
    27.3202       21.40000
    27.3308       40.80000
    27.3413       30.60000
    27.3518       26.60000
    27.3623       33.70000
    27.3728       33.70000
    27.3834       25.50000
    27.3939       23.50000
    27.4044       38.80000
    27.4149       36.80000
    27.4255       34.70000
    27.4360       34.70000
    27.4465       30.60000
    27.4570       34.70000
    27.4676       26.60000
    27.4781       26.60000
    27.4886       38.80000
    27.4991       33.70000
    27.5096       46.00000
    27.5202       33.70000
    27.5307       36.80000
    27.5412       33.70000
    27.5517       32.70000
    27.5623       34.70000
    27.5728       36.80000
    27.5833       32.70000
    27.5938       38.80000
    27.6043       40.80000
    27.6149       34.70000
    27.6254       32.70000
    27.6359       29.60000
    27.6464       31.70000
    27.6570       27.60000
    27.6675       42.90000
    27.6780       29.60000
    27.6885       30.60000
    27.6991       37.80000
    27.7096       27.60000
    27.7201       37.80000
    27.7306       31.70000
    27.7411       39.80000
    27.7517       34.70000
    27.7622       36.80000
    27.7727       35.70000
    27.7832       24.50000
    27.7938       35.70000
    27.8043       37.80000
    27.8148       29.60000
    27.8253       51.10000
    27.8358       23.50000
    27.8464       29.60000
    27.8569       23.50000
    27.8674       31.70000
    27.8779       26.60000
    27.8885       33.70000
    27.8990       27.60000
    27.9095       33.70000
    27.9200       30.60000
    27.9305       46.00000
    27.9411       32.70000
    27.9516       34.70000
    27.9621       35.70000
    27.9726       29.60000
    27.9832       36.80000
    27.9937       26.60000
    28.0042       27.60000
    28.0147       43.90000
    28.0253       30.60000
    28.0358       34.70000
    28.0463       34.70000
    28.0568       23.50000
    28.0673       36.80000
    28.0779       32.70000
    28.0884       35.70000
    28.0989       42.90000
    28.1094       36.80000
    28.1200       50.00000
    28.1305       32.70000
    28.1410       36.80000
    28.1515       33.70000
    28.1620       28.60000
    28.1726       22.50000
    28.1831       43.90000
    28.1936       31.70000
    28.2041       26.60000
    28.2147       32.70000
    28.2252       27.60000
    28.2357       40.80000
    28.2462       25.50000
    28.2568       33.70000
    28.2673       30.60000
    28.2778       29.60000
    28.2883       42.90000
    28.2988       39.80000
    28.3094       35.70000
    28.3199       24.50000
    28.3304       27.60000
    28.3409       33.70000
    28.3515       34.70000
    28.3620       29.60000
    28.3725       37.80000
    28.3830       36.80000
    28.3935       38.80000
    28.4041       35.70000
    28.4146       34.70000
    28.4251       22.50000
    28.4356       35.70000
    28.4462       32.70000
    28.4567       49.00000
    28.4672       36.80000
    28.4777       37.80000
    28.4882       34.70000
    28.4988       38.80000
    28.5093       28.60000
    28.5198       36.80000
    28.5303       29.60000
    28.5409       47.00000
    28.5514       36.80000
    28.5619       43.90000
    28.5724       37.80000
    28.5830       39.80000
    28.5935       37.80000
    28.6040       37.80000
    28.6145       19.40000
    28.6250       40.80000
    28.6356       41.90000
    28.6461       27.60000
    28.6566       30.60000
    28.6671       28.60000
    28.6777       35.70000
    28.6882       32.70000
    28.6987       34.70000
    28.7092       53.10000
    28.7197       26.60000
    28.7303       35.70000
    28.7408       27.60000
    28.7513       44.90000
    28.7618       40.80000
    28.7724       28.60000
    28.7829       36.80000
    28.7934       46.00000
    28.8039       29.60000
    28.8144       48.00000
    28.8250       40.80000
    28.8355       24.50000
    28.8460       39.80000
    28.8565       34.70000
    28.8671       33.70000
    28.8776       36.80000
    28.8881       40.80000
    28.8986       51.10000
    28.9092       28.60000
    28.9197       37.80000
    28.9302       42.90000
    28.9407       37.80000
    28.9512       43.90000
    28.9618       44.90000
    28.9723       44.90000
    28.9828       44.90000
    28.9933       37.80000
    29.0039       36.80000
    29.0144       52.10000
    29.0249       35.70000
    29.0354       38.80000
    29.0459       38.80000
    29.0565       40.80000
    29.0670       40.80000
    29.0775       39.80000
    29.0880       38.80000
    29.0986       44.90000
    29.1091       48.00000
    29.1196       37.80000
    29.1301       40.80000
    29.1407       53.10000
    29.1512       42.90000
    29.1617       44.90000
    29.1722       47.00000
    29.1827       46.00000
    29.1933       49.00000
    29.2038       59.20000
    29.2143       57.20000
    29.2248       57.20000
    29.2354       43.90000
    29.2459       50.00000
    29.2564       59.20000
    29.2669       52.10000
    29.2774       42.90000
    29.2880       63.30000
    29.2985       66.40000
    29.3090       62.30000
    29.3195       61.30000
    29.3301       51.10000
    29.3406       65.40000
    29.3511       57.20000
    29.3616       55.10000
    29.3721       59.20000
    29.3827       75.60000
    29.3932       91.90000
    29.4037       75.60000
    29.4142       78.60000
    29.4248       85.80000
    29.4353      103.10000
    29.4458       94.00000
    29.4563      111.30000
    29.4669       86.80000
    29.4774      127.70000
    29.4879      100.10001
    29.4984      116.40000
    29.5089      129.70000
    29.5195      139.90001
    29.5300      135.80000
    29.5405      159.30000
    29.5510      175.70000
    29.5616      199.10001
    29.5721      201.20001
    29.5826      244.10001
    29.5931      285.89999
    29.6036      316.60001
    29.6142      327.80002
    29.6247      359.50000
    29.6352      432.00000
    29.6457      459.60001
    29.6563      471.80002
    29.6668      594.40002
    29.6773      607.60004
    29.6878      688.29999
    29.6983      765.90002
    29.7089      837.40002
    29.7194      853.79999
    29.7299      970.20001
    29.7404     1014.10004
    29.7510     1114.20007
    29.7615     1174.40002
    29.7720     1207.09998
    29.7825     1208.09998
    29.7931     1243.90002
    29.8036     1257.09998
    29.8141     1255.09998
    29.8246     1255.09998
    29.8351     1256.09998
    29.8457     1198.90002
    29.8562     1065.20007
    29.8667     1015.10004
    29.8772      927.29999
    29.8878      907.90002
    29.8983      776.10004
    29.9088      695.50000
    29.9193      677.10004
    29.9298      592.29999
    29.9404      500.39999
    29.9509      505.50000
    29.9614      445.30002
    29.9719      373.80002
    29.9825      316.60001
    29.9930      269.60001
    30.0035      263.50000
    30.0140      227.70000
    30.0246      212.40001
    30.0351      203.20001
    30.0456      166.50000
    30.0561      155.20000
    30.0666      125.60000
    30.0772      152.20000
    30.0877      132.80000
    30.0982       91.90000
    30.1087      117.40000
    30.1193      111.30000
    30.1298      102.10000
    30.1403       79.70000
    30.1508       65.40000
    30.1613       72.50000
    30.1719       86.80000
    30.1824       78.60000
    30.1929       65.40000
    30.2034       59.20000
    30.2140       60.30000
    30.2245       67.40000
    30.2350       51.10000
    30.2455       72.50000
    30.2560       41.90000
    30.2666       50.00000
    30.2771       54.10000
    30.2876       58.20000
    30.2981       43.90000
    30.3087       40.80000
    30.3192       39.80000
    30.3297       57.20000
    30.3402       38.80000
    30.3508       35.70000
    30.3613       44.90000
    30.3718       43.90000
    30.3823       39.80000
    30.3928       54.10000
    30.4034       51.10000
    30.4139       33.70000
    30.4244       43.90000
    30.4349       40.80000
    30.4455       37.80000
    30.4560       32.70000
    30.4665       27.60000
    30.4770       41.90000
    30.4875       36.80000
    30.4981       41.90000
    30.5086       37.80000
    30.5191       41.90000
    30.5296       30.60000
    30.5402       30.60000
    30.5507       34.70000
    30.5612       29.60000
    30.5717       24.50000
    30.5822       27.60000
    30.5928       26.60000
    30.6033       31.70000
    30.6138       37.80000
    30.6243       35.70000
    30.6349       26.60000
    30.6454       27.60000
    30.6559       32.70000
    30.6664       37.80000
    30.6770       29.60000
    30.6875       38.80000
    30.6980       24.50000
    30.7085       47.00000
    30.7190       37.80000
    30.7296       34.70000
    30.7401       30.60000
    30.7506       25.50000
    30.7611       30.60000
    30.7717       34.70000
    30.7822       25.50000
    30.7927       24.50000
    30.8032       40.80000
    30.8137       44.90000
    30.8243       35.70000
    30.8348       21.40000
    30.8453       28.60000
    30.8558       42.90000
    30.8664       35.70000
    30.8769       26.60000
    30.8874       28.60000
    30.8979       28.60000
    30.9085       37.80000
    30.9190       48.00000
    30.9295       31.70000
    30.9400       28.60000
    30.9505       21.40000
    30.9611       24.50000
    30.9716       33.70000
    30.9821       44.90000
    30.9926       41.90000
    31.0032       36.80000
    31.0137       30.60000
    31.0242       23.50000
    31.0347       26.60000
    31.0452       38.80000
    31.0558       37.80000
    31.0663       37.80000
    31.0768       40.80000
    31.0873       26.60000
    31.0979       32.70000
    31.1084       36.80000
    31.1189       31.70000
    31.1294       28.60000
    31.1399       26.60000
    31.1505       26.60000
    31.1610       28.60000
    31.1715       42.90000
    31.1820       30.60000
    31.1926       39.80000
    31.2031       36.80000
    31.2136       24.50000
    31.2241       34.70000
    31.2347       33.70000
    31.2452       35.70000
    31.2557       31.70000
    31.2662       27.60000
    31.2767       23.50000
    31.2873       28.60000
    31.2978       32.70000
    31.3083       28.60000
    31.3188       24.50000
    31.3294       24.50000
    31.3399       34.70000
    31.3504       25.50000
    31.3609       36.80000
    31.3714       38.80000
    31.3820       42.90000
    31.3925       21.40000
    31.4030       36.80000
    31.4135       35.70000
    31.4241       29.60000
    31.4346       35.70000
    31.4451       37.80000
    31.4556       29.60000
    31.4662       36.80000
    31.4767       34.70000
    31.4872       32.70000
    31.4977       26.60000
    31.5082       39.80000
    31.5188       31.70000
    31.5293       23.50000
    31.5398       28.60000
    31.5503       30.60000
    31.5609       39.80000
    31.5714       39.80000
    31.5819       23.50000
    31.5924       25.50000
    31.6029       33.70000
    31.6135       22.50000
    31.6240       34.70000
    31.6345       36.80000
    31.6450       33.70000
    31.6556       28.60000
    31.6661       37.80000
    31.6766       25.50000
    31.6871       36.80000
    31.6976       27.60000
    31.7082       31.70000
    31.7187       47.00000
    31.7292       34.70000
    31.7397       39.80000
    31.7503       43.90000
    31.7608       38.80000
    31.7713       39.80000
    31.7818       31.70000
    31.7924       29.60000
    31.8029       28.60000
    31.8134       42.90000
    31.8239       41.90000
    31.8344       41.90000
    31.8450       46.00000
    31.8555       34.70000
    31.8660       39.80000
    31.8765       37.80000
    31.8871       42.90000
    31.8976       49.00000
    31.9081       51.10000
    31.9186       47.00000
    31.9291       51.10000
    31.9397       53.10000
    31.9502       62.30000
    31.9607       57.20000
    31.9712       64.30000
    31.9818       63.30000
    31.9923       63.30000
    32.0028       84.80000
    32.0133       94.00000
    32.0238       79.70000
    32.0344       94.00000
    32.0449      102.10000
    32.0554      104.20000
    32.0659      125.60000
    32.0765      153.20000
    32.0870      154.20000
    32.0975      163.40001
    32.1080      198.10001
    32.1186      205.30000
    32.1291      251.20000
    32.1396      289.00000
    32.1501      300.20001
    32.1606      352.30002
    32.1712      433.00000
    32.1817      447.30002
    32.1922      458.50000
    32.2027      544.29999
    32.2133      577.00000
    32.2238      619.90002
    32.2343      640.29999
    32.2448      610.70001
    32.2553      558.60004
    32.2659      551.50000
    32.2764      558.60004
    32.2869      492.20001
    32.2974      435.00000
    32.3080      395.20001
    32.3185      366.60001
    32.3290      311.50000
    32.3395      278.80002
    32.3501      265.50000
    32.3606      221.60001
    32.3711      212.40001
    32.3816      181.80000
    32.3921      149.10001
    32.4027      153.20000
    32.4132      129.70000
    32.4237      116.40000
    32.4342      107.20000
    32.4448      118.50000
    32.4553       89.90000
    32.4658       81.70000
    32.4763       82.70000
    32.4868       62.30000
    32.4974       67.40000
    32.5079       54.10000
    32.5184       56.20000
    32.5289       62.30000
    32.5395       61.30000
    32.5500       58.20000
    32.5605       56.20000
    32.5710       43.90000
    32.5815       62.30000
    32.5921       34.70000
    32.6026       40.80000
    32.6131       41.90000
    32.6236       51.10000
    32.6342       39.80000
    32.6447       38.80000
    32.6552       40.80000
    32.6657       46.00000
    32.6763       38.80000
    32.6868       38.80000
    32.6973       29.60000
    32.7078       38.80000
    32.7183       36.80000
    32.7289       30.60000
    32.7394       38.80000
    32.7499       38.80000
    32.7604       26.60000
    32.7710       34.70000
    32.7815       33.70000
    32.7920       42.90000
    32.8025       37.80000
    32.8130       19.40000
    32.8236       31.70000
    32.8341       27.60000
    32.8446       31.70000
    32.8551       35.70000
    32.8657       31.70000
    32.8762       32.70000
    32.8867       27.60000
    32.8972       31.70000
    32.9077       39.80000
    32.9183       27.60000
    32.9288       31.70000
    32.9393       30.60000
    32.9498       35.70000
    32.9604       33.70000
    32.9709       30.60000
    32.9814       29.60000
    32.9919       32.70000
    33.0025       21.40000
    33.0130       25.50000
    33.0235       27.60000
    33.0340       28.60000
    33.0445       27.60000
    33.0551       27.60000
    33.0656       28.60000
    33.0761       36.80000
    33.0866       29.60000
    33.0972       32.70000
    33.1077       29.60000
    33.1182       25.50000
    33.1287       27.60000
    33.1392       31.70000
    33.1498       18.40000
    33.1603       22.50000
    33.1708       26.60000
    33.1813       24.50000
    33.1919       26.60000
    33.2024       22.50000
    33.2129       34.70000
    33.2234       20.40000
    33.2340       29.60000
    33.2445       28.60000
    33.2550       22.50000
    33.2655       27.60000
    33.2760       23.50000
    33.2866       18.40000
    33.2971       38.80000
    33.3076       22.50000
    33.3181       37.80000
    33.3287       23.50000
    33.3392       35.70000
    33.3497       22.50000
    33.3602       26.60000
    33.3707       24.50000
    33.3813       23.50000
    33.3918       30.60000
    33.4023       19.40000
    33.4128       35.70000
    33.4234       22.50000
    33.4339       41.90000
    33.4444       35.70000
    33.4549       26.60000
    33.4654       31.70000
    33.4760       29.60000
    33.4865       18.40000
    33.4970       24.50000
    33.5075       26.60000
    33.5181       23.50000
    33.5286       27.60000
    33.5391       27.60000
    33.5496       31.70000
    33.5602       25.50000
    33.5707       26.60000
    33.5812       30.60000
    33.5917       26.60000
    33.6022       24.50000
    33.6128       32.70000
    33.6233       25.50000
    33.6338       19.40000
    33.6443       25.50000
    33.6549       38.80000
    33.6654       27.60000
    33.6759       30.60000
    33.6864       31.70000
    33.6969       25.50000
    33.7075       29.60000
    33.7180       32.70000
    33.7285       24.50000
    33.7390       24.50000
    33.7496       29.60000
    33.7601       19.40000
    33.7706       29.60000
    33.7811       29.60000
    33.7916       26.60000
    33.8022       42.90000
    33.8127       36.80000
    33.8232       21.40000
    33.8337       21.40000
    33.8443       34.70000
    33.8548       20.40000
    33.8653       28.60000
    33.8758       24.50000
    33.8864       31.70000
    33.8969       19.40000
    33.9074       27.60000
    33.9179       26.60000
    33.9284       27.60000
    33.9390       26.60000
    33.9495       28.60000
    33.9600       33.70000
    33.9705       22.50000
    33.9811       26.60000
    33.9916       29.60000
    34.0021       29.60000
    34.0126       33.70000
    34.0231       24.50000
    34.0337       33.70000
    34.0442       26.60000
    34.0547       19.40000
    34.0652       27.60000
    34.0758       18.40000
    34.0863       31.70000
    34.0968       29.60000
    34.1073       20.40000
    34.1179       30.60000
    34.1284       30.60000
    34.1389       21.40000
    34.1494       34.70000
    34.1599       26.60000
    34.1705       28.60000
    34.1810       30.60000
    34.1915       26.60000
    34.2020       32.70000
    34.2126       35.70000
    34.2231       22.50000
    34.2336       34.70000
    34.2441       33.70000
    34.2546       26.60000
    34.2652       27.60000
    34.2757       33.70000
    34.2862       37.80000
    34.2967       34.70000
    34.3073       35.70000
    34.3178       31.70000
    34.3283       30.60000
    34.3388       29.60000
    34.3493       39.80000
    34.3599       37.80000
    34.3704       35.70000
    34.3809       39.80000
    34.3914       36.80000
    34.4020       30.60000
    34.4125       42.90000
    34.4230       37.80000
    34.4335       34.70000
    34.4441       48.00000
    34.4546       38.80000
    34.4651       31.70000
    34.4756       30.60000
    34.4861       50.00000
    34.4967       39.80000
    34.5072       54.10000
    34.5177       65.40000
    34.5282       55.10000
    34.5388       49.00000
    34.5493       52.10000
    34.5598       50.00000
    34.5703       65.40000
    34.5808       56.20000
    34.5914       62.30000
    34.6019       70.50000
    34.6124       78.60000
    34.6229       69.40000
    34.6335       63.30000
    34.6440       61.30000
    34.6545       54.10000
    34.6650       52.10000
    34.6756       62.30000
    34.6861       44.90000
    34.6966       50.00000
    34.7071       42.90000
    34.7176       58.20000
    34.7282       44.90000
    34.7387       57.20000
    34.7492       67.40000
    34.7597       49.00000
    34.7703       43.90000
    34.7808       52.10000
    34.7913       31.70000
    34.8018       44.90000
    34.8123       51.10000
    34.8229       36.80000
    34.8334       41.90000
    34.8439       42.90000
    34.8544       39.80000
    34.8650       36.80000
    34.8755       39.80000
    34.8860       36.80000
    34.8965       50.00000
    34.9070       33.70000
    34.9176       34.70000
    34.9281       41.90000
    34.9386       49.00000
    34.9491       38.80000
    34.9597       40.80000
    34.9702       51.10000
    34.9807       48.00000
    34.9912       34.70000
    35.0018       40.80000
    35.0123       42.90000
    35.0228       37.80000
    35.0333       42.90000
    35.0438       46.00000
    35.0544       25.50000
    35.0649       37.80000
    35.0754       48.00000
    35.0859       56.20000
    35.0965       57.20000
    35.1070       71.50000
    35.1175       47.00000
    35.1280       52.10000
    35.1385       55.10000
    35.1491       54.10000
    35.1596       75.60000
    35.1701       67.40000
    35.1806       69.40000
    35.1912       72.50000
    35.2017       50.00000
    35.2122       79.70000
    35.2227       84.80000
    35.2332       77.60000
    35.2438       92.90000
    35.2543       86.80000
    35.2648       81.70000
    35.2753       94.00000
    35.2859       81.70000
    35.2964       91.90000
    35.3069       90.90000
    35.3174      113.40000
    35.3280      109.30000
    35.3385      129.70000
    35.3490      127.70000
    35.3595      164.40001
    35.3700      162.40001
    35.3806      199.10001
    35.3911      197.10001
    35.4016      228.80000
    35.4121      219.60001
    35.4227      252.20000
    35.4332      287.00000
    35.4437      277.80002
    35.4542      353.30002
    35.4647      406.50000
    35.4753      436.10001
    35.4858      509.60001
    35.4963      580.10004
    35.5068      588.20001
    35.5174      714.90002
    35.5279      794.50000
    35.5384      910.90002
    35.5489      996.70001
    35.5595     1118.30005
    35.5700     1289.80005
    35.5805     1354.20007
    35.5910     1473.70007
    35.6015     1514.50000
    35.6121     1618.70007
    35.6226     1716.70007
    35.6331     1644.20007
    35.6436     1706.50000
    35.6542     1690.20007
    35.6647     1551.30005
    35.6752     1446.09998
    35.6857     1378.70007
    35.6962     1320.50000
    35.7068     1109.09998
    35.7173     1035.50000
    35.7278      905.79999
    35.7383      816.00000
    35.7489      763.90002
    35.7594      700.60004
    35.7699      599.50000
    35.7804      541.29999
    35.7909      477.89999
    35.8015      458.50000
    35.8120      397.30002
    35.8225      353.30002
    35.8330      297.20001
    35.8436      302.30002
    35.8541      265.50000
    35.8646      226.70000
    35.8751      215.50000
    35.8857      198.10001
    35.8962      175.70000
    35.9067      135.80000
    35.9172      183.80000
    35.9277      127.70000
    35.9383      142.00000
    35.9488      144.00000
    35.9593      107.20000
    35.9698      117.40000
    35.9804      119.50000
    35.9909      109.30000
    36.0014      108.30000
    36.0119       98.00000
    36.0224       97.00000
    36.0330       77.60000
    36.0435       97.00000
    36.0540       99.10000
    36.0645       72.50000
    36.0751       77.60000
    36.0856       79.70000
    36.0961       67.40000
    36.1066       76.60000
    36.1171       66.40000
    36.1277       61.30000
    36.1382       64.30000
    36.1487       73.50000
    36.1592       75.60000
    36.1698       65.40000
    36.1803       66.40000
    36.1908       50.00000
    36.2013       61.30000
    36.2119       61.30000
    36.2224       61.30000
    36.2329       75.60000
    36.2434       55.10000
    36.2539       64.30000
    36.2645       79.70000
    36.2750       77.60000
    36.2855       78.60000
    36.2960       73.50000
    36.3066       87.80000
    36.3171       87.80000
    36.3276      104.20000
    36.3381       81.70000
    36.3486      114.40000
    36.3592      104.20000
    36.3697      106.20000
    36.3802      120.50000
    36.3907      118.50000
    36.4013      128.70000
    36.4118      126.60000
    36.4223      156.30000
    36.4328      138.90001
    36.4434      178.70000
    36.4539      181.80000
    36.4644      222.60001
    36.4749      227.70000
    36.4854      267.60001
    36.4960      254.30000
    36.5065      293.10001
    36.5170      324.80002
    36.5275      387.10001
    36.5381      367.60001
    36.5486      419.70001
    36.5591      438.10001
    36.5696      464.70001
    36.5801      470.80002
    36.5907      480.00000
    36.6012      530.00000
    36.6117      538.20001
    36.6222      536.20001
    36.6328      485.10001
    36.6433      495.30002
    36.6538      439.10001
    36.6643      447.30002
    36.6748      455.50000
    36.6854      389.10001
    36.6959      373.80002
    36.7064      328.80002
    36.7169      329.89999
    36.7275      298.20001
    36.7380      242.00000
    36.7485      241.00000
    36.7590      239.00000
    36.7696      188.90001
    36.7801      169.50000
    36.7906      138.90001
    36.8011      146.00000
    36.8116      121.50000
    36.8222      135.80000
    36.8327      117.40000
    36.8432       97.00000
    36.8537       94.00000
    36.8643       72.50000
    36.8748       74.60000
    36.8853       80.70000
    36.8958       98.00000
    36.9063       68.40000
    36.9169       76.60000
    36.9274       48.00000
    36.9379       65.40000
    36.9484       59.20000
    36.9590       49.00000
    36.9695       56.20000
    36.9800       44.90000
    36.9905       49.00000
    37.0010       48.00000
    37.0116       38.80000
    37.0221       58.20000
    37.0326       37.80000
    37.0431       41.90000
    37.0537       43.90000
    37.0642       39.80000
    37.0747       27.60000
    37.0852       37.80000
    37.0958       33.70000
    37.1063       42.90000
    37.1168       41.90000
    37.1273       32.70000
    37.1378       48.00000
    37.1484       36.80000
    37.1589       26.60000
    37.1694       40.80000
    37.1799       29.60000
    37.1905       40.80000
    37.2010       26.60000
    37.2115       41.90000
    37.2220       36.80000
    37.2325       37.80000
    37.2431       26.60000
    37.2536       32.70000
    37.2641       33.70000
    37.2746       27.60000
    37.2852       27.60000
    37.2957       25.50000
    37.3062       39.80000
    37.3167       31.70000
    37.3273       30.60000
    37.3378       28.60000
    37.3483       33.70000
    37.3588       31.70000
    37.3693       31.70000
    37.3799       32.70000
    37.3904       35.70000
    37.4009       23.50000
    37.4114       31.70000
    37.4220       31.70000
    37.4325       28.60000
    37.4430       30.60000
    37.4535       36.80000
    37.4640       30.60000
    37.4746       38.80000
    37.4851       44.90000
    37.4956       43.90000
    37.5061       36.80000
    37.5167       32.70000
    37.5272       38.80000
    37.5377       32.70000
    37.5482       40.80000
    37.5587       39.80000
    37.5693       41.90000
    37.5798       32.70000
    37.5903       42.90000
    37.6008       43.90000
    37.6114       46.00000
    37.6219       41.90000
    37.6324       42.90000
    37.6429       50.00000
    37.6535       51.10000
    37.6640       50.00000
    37.6745       44.90000
    37.6850       62.30000
    37.6955       59.20000
    37.7061       59.20000
    37.7166       60.30000
    37.7271       78.60000
    37.7376       58.20000
    37.7482       85.80000
    37.7587       90.90000
    37.7692      103.10000
    37.7797      111.30000
    37.7902      121.50000
    37.8008      131.70000
    37.8113      127.70000
    37.8218      150.10001
    37.8323      177.70000
    37.8429      203.20001
    37.8534      237.90001
    37.8639      262.50000
    37.8744      291.10001
    37.8849      313.50000
    37.8955      341.10001
    37.9060      326.80002
    37.9165      365.60001
    37.9270      321.70001
    37.9376      399.30002
    37.9481      415.60001
    37.9586      388.10001
    37.9691      352.30002
    37.9797      306.39999
    37.9902      311.50000
    38.0007      269.60001
    38.0112      276.80002
    38.0217      235.90001
    38.0323      220.60001
    38.0428      186.90001
    38.0533      182.80000
    38.0638      160.30000
    38.0744      155.20000
    38.0849      148.10001
    38.0954      135.80000
    38.1059      113.40000
    38.1164       99.10000
    38.1270       85.80000
    38.1375       91.90000
    38.1480       84.80000
    38.1585       57.20000
    38.1691       68.40000
    38.1796       74.60000
    38.1901       56.20000
    38.2006       58.20000
    38.2112       65.40000
    38.2217       50.00000
    38.2322       51.10000
    38.2427       60.30000
    38.2532       54.10000
    38.2638       53.10000
    38.2743       56.20000
    38.2848       54.10000
    38.2953       61.30000
    38.3059       55.10000
    38.3164       52.10000
    38.3269       48.00000
    38.3374       48.00000
    38.3479       52.10000
    38.3585       50.00000
    38.3690       43.90000
    38.3795       40.80000
    38.3900       41.90000
    38.4006       31.70000
    38.4111       53.10000
    38.4216       43.90000
    38.4321       35.70000
    38.4426       33.70000
    38.4532       35.70000
    38.4637       30.60000
    38.4742       32.70000
    38.4847       29.60000
    38.4953       22.50000
    38.5058       32.70000
    38.5163       31.70000
    38.5268       30.60000
    38.5374       28.60000
    38.5479       30.60000
    38.5584       24.50000
    38.5689       27.60000
    38.5794       28.60000
    38.5900       27.60000
    38.6005       18.40000
    38.6110       27.60000
    38.6215       23.50000
    38.6321       21.40000
    38.6426       23.50000
    38.6531       23.50000
    38.6636       30.60000
    38.6741       19.40000
    38.6847       12.30000
    38.6952       34.70000
    38.7057       15.30000
    38.7162       25.50000
    38.7268       18.40000
    38.7373       25.50000
    38.7478       18.40000
    38.7583       24.50000
    38.7689       25.50000
    38.7794       16.30000
    38.7899       30.60000
    38.8004       26.60000
    38.8109       28.60000
    38.8215       25.50000
    38.8320       29.60000
    38.8425       36.80000
    38.8530       20.40000
    38.8636       17.40000
    38.8741       16.30000
    38.8846       31.70000
    38.8951       23.50000
    38.9056       29.60000
    38.9162       28.60000
    38.9267       31.70000
    38.9372       28.60000
    38.9477       36.80000
    38.9583       29.60000
    38.9688       30.60000
    38.9793       35.70000
    38.9898       41.90000
    39.0003       32.70000
    39.0109       38.80000
    39.0214       27.60000
    39.0319       29.60000
    39.0424       40.80000
    39.0530       29.60000
    39.0635       39.80000
    39.0740       47.00000
    39.0845       35.70000
    39.0951       38.80000
    39.1056       52.10000
    39.1161       48.00000
    39.1266       55.10000
    39.1371       53.10000
    39.1477       63.30000
    39.1582       59.20000
    39.1687       65.40000
    39.1792       73.50000
    39.1898       91.90000
    39.2003       65.40000
    39.2108       88.80000
    39.2213       87.80000
    39.2318      107.20000
    39.2424      110.30000
    39.2529      136.80000
    39.2634      133.80000
    39.2739      183.80000
    39.2845      185.90001
    39.2950      207.30000
    39.3055      197.10001
    39.3160      221.60001
    39.3265      252.20000
    39.3371      207.30000
    39.3476      236.90001
    39.3581      203.20001
    39.3686      226.70000
    39.3792      235.90001
    39.3897      222.60001
    39.4002      227.70000
    39.4107      193.00000
    39.4213      179.70000
    39.4318      158.30000
    39.4423      178.70000
    39.4528      146.00000
    39.4633      146.00000
    39.4739      132.80000
    39.4844      137.90001
    39.4949      128.70000
    39.5054      125.60000
    39.5160      130.70000
    39.5265      131.70000
    39.5370      144.00000
    39.5475      134.80000
    39.5580      151.10001
    39.5686      166.50000
    39.5791      175.70000
    39.5896      178.70000
    39.6001      167.50000
    39.6107      209.40001
    39.6212      213.40001
    39.6317      208.30000
    39.6422      261.39999
    39.6528      280.80002
    39.6633      307.39999
    39.6738      305.39999
    39.6843      312.50000
    39.6948      371.70001
    39.7054      350.30002
    39.7159      349.30002
    39.7264      369.70001
    39.7369      426.89999
    39.7475      402.40002
    39.7580      422.80002
    39.7685      450.39999
    39.7790      439.10001
    39.7895      449.30002
    39.8001      443.20001
    39.8106      461.60001
    39.8211      474.89999
    39.8316      439.10001
    39.8422      412.60001
    39.8527      409.49997
    39.8632      408.50000
    39.8737      381.89999
    39.8842      381.89999
    39.8948      333.89999
    39.9053      285.89999
    39.9158      258.39999
    39.9263      269.60001
    39.9369      195.10001
    39.9474      215.50000
    39.9579      175.70000
    39.9684      171.60001
    39.9790      158.30000
    39.9895      138.90001
    40.0000      115.40000
    40.0105      104.20000
    40.0210       90.90000
    40.0316       97.00000
    40.0421       82.70000
    40.0526       96.00000
    40.0631       81.70000
    40.0737       76.60000
    40.0842       83.70000
    40.0947       66.40000
    40.1052       57.20000
    40.1157       56.20000
    40.1263       50.00000
    40.1368       59.20000
    40.1473       55.10000
    40.1578       51.10000
    40.1684       54.10000
    40.1789       51.10000
    40.1894       52.10000
    40.1999       52.10000
    40.2104       27.60000
    40.2210       37.80000
    40.2315       22.50000
    40.2420       31.70000
    40.2525       37.80000
    40.2631       37.80000
    40.2736       31.70000
    40.2841       31.70000
    40.2946       23.50000
    40.3052       50.00000
    40.3157       27.60000
    40.3262       20.40000
    40.3367       24.50000
    40.3472       23.50000
    40.3578       28.60000
    40.3683       21.40000
    40.3788       26.60000
    40.3893       30.60000
    40.3999       23.50000
    40.4104       24.50000
    40.4209       30.60000
    40.4314       20.40000
    40.4419       35.70000
    40.4525       25.50000
    40.4630       26.60000
    40.4735       23.50000
    40.4840       32.70000
    40.4946       24.50000
    40.5051       26.60000
    40.5156       22.50000
    40.5261       21.40000
    40.5367       26.60000
    40.5472       24.50000
    40.5577       28.60000
    40.5682       28.60000
    40.5787       31.70000
    40.5893       23.50000
    40.5998       27.60000
    40.6103       26.60000
    40.6208       33.70000
    40.6314       18.40000
    40.6419       27.60000
    40.6524       23.50000
    40.6629       23.50000
    40.6734       23.50000
    40.6840       21.40000
    40.6945       14.30000
    40.7050       15.30000
    40.7155       20.40000
    40.7261       18.40000
    40.7366       22.50000
    40.7471       26.60000
    40.7576       17.40000
    40.7681       13.30000
    40.7787       26.60000
    40.7892       15.30000
    40.7997       17.40000
    40.8102       20.40000
    40.8208       21.40000
    40.8313       31.70000
    40.8418       19.40000
    40.8523       20.40000
    40.8629       20.40000
    40.8734       24.50000
    40.8839       16.30000
    40.8944       23.50000
    40.9049       29.60000
    40.9155       24.50000
    40.9260       21.40000
    40.9365       20.40000
    40.9470       24.50000
    40.9576       17.40000
    40.9681       28.60000
    40.9786       19.40000
    40.9891       27.60000
    40.9996       14.30000
    41.0102       10.20000
    41.0207       22.50000
    41.0312       24.50000
    41.0417       22.50000
    41.0523       22.50000
    41.0628       25.50000
    41.0733       21.40000
    41.0838       14.30000
    41.0943       20.40000
    41.1049       24.50000
    41.1154       12.30000
    41.1259       24.50000
    41.1364       14.30000
    41.1470       15.30000
    41.1575       16.30000
    41.1680       23.50000
    41.1785       26.60000
    41.1891       18.40000
    41.1996       21.40000
    41.2101       23.50000
    41.2206       16.30000
    41.2311       21.40000
    41.2417       29.60000
    41.2522       17.40000
    41.2627       19.40000
    41.2732       17.40000
    41.2838       20.40000
    41.2943       17.40000
    41.3048       26.60000
    41.3153       13.30000
    41.3258       22.50000
    41.3364       20.40000
    41.3469       17.40000
    41.3574       23.50000
    41.3679       20.40000
    41.3785       22.50000
    41.3890       33.70000
    41.3995       14.30000
    41.4100       22.50000
    41.4206       30.60000
    41.4311       25.50000
    41.4416       22.50000
    41.4521       24.50000
    41.4626       21.40000
    41.4732       18.40000
    41.4837       21.40000
    41.4942       22.50000
    41.5047       21.40000
    41.5153       27.60000
    41.5258       28.60000
    41.5363       24.50000
    41.5468       22.50000
    41.5573       26.60000
    41.5679       28.60000
    41.5784       21.40000
    41.5889       16.30000
    41.5994       17.40000
    41.6100       24.50000
    41.6205       22.50000
    41.6310       28.60000
    41.6415       21.40000
    41.6520       23.50000
    41.6626       24.50000
    41.6731       22.50000
    41.6836       21.40000
    41.6941       20.40000
    41.7047       21.40000
    41.7152       29.60000
    41.7257       25.50000
    41.7362       21.40000
    41.7468       27.60000
    41.7573       21.40000
    41.7678       22.50000
    41.7783       26.60000
    41.7888       22.50000
    41.7994       35.70000
    41.8099       22.50000
    41.8204       27.60000
    41.8309       30.60000
    41.8415       32.70000
    41.8520       24.50000
    41.8625       17.40000
    41.8730       25.50000
    41.8835       39.80000
    41.8941       36.80000
    41.9046       37.80000
    41.9151       26.60000
    41.9256       31.70000
    41.9362       41.90000
    41.9467       37.80000
    41.9572       46.00000
    41.9677       41.90000
    41.9783       50.00000
    41.9888       49.00000
    41.9993       58.20000
    42.0098       57.20000
    42.0203       50.00000
    42.0309       62.30000
    42.0414       75.60000
    42.0519       71.50000
    42.0624       83.70000
    42.0730       71.50000
    42.0835       78.60000
    42.0940      111.30000
    42.1045      108.30000
    42.1150      136.80000
    42.1256      136.80000
    42.1361      126.60000
    42.1466      166.50000
    42.1571      184.80000
    42.1677      211.40001
    42.1782      213.40001
    42.1887      252.20000
    42.1992      241.00000
    42.2097      282.89999
    42.2203      278.80002
    42.2308      302.30002
    42.2413      326.80002
    42.2518      293.10001
    42.2624      269.60001
    42.2729      294.10001
    42.2834      279.80002
    42.2939      281.89999
    42.3045      245.10001
    42.3150      248.20000
    42.3255      233.90001
    42.3360      202.20001
    42.3465      209.40001
    42.3571      166.50000
    42.3676      158.30000
    42.3781      161.40001
    42.3886      128.70000
    42.3992      139.90001
    42.4097      133.80000
    42.4202      110.30000
    42.4307       98.00000
    42.4412       86.80000
    42.4518       82.70000
    42.4623       80.70000
    42.4728       73.50000
    42.4833       62.30000
    42.4939       54.10000
    42.5044       50.00000
    42.5149       59.20000
    42.5254       52.10000
    42.5359       44.90000
    42.5465       48.00000
    42.5570       42.90000
    42.5675       44.90000
    42.5780       35.70000
    42.5886       35.70000
    42.5991       37.80000
    42.6096       41.90000
    42.6201       29.60000
    42.6307       27.60000
    42.6412       31.70000
    42.6517       30.60000
    42.6622       21.40000
    42.6727       33.70000
    42.6833       23.50000
    42.6938       40.80000
    42.7043       30.60000
    42.7148       27.60000
    42.7254       24.50000
    42.7359       24.50000
    42.7464       28.60000
    42.7569       26.60000
    42.7674       20.40000
    42.7780       30.60000
    42.7885       27.60000
    42.7990       22.50000
    42.8095       26.60000
    42.8201       22.50000
    42.8306       28.60000
    42.8411       22.50000
    42.8516       18.40000
    42.8622       20.40000
    42.8727       14.30000
    42.8832       22.50000
    42.8937       20.40000
    42.9042       20.40000
    42.9148       27.60000
    42.9253       19.40000
    42.9358       20.40000
    42.9463       19.40000
    42.9569       23.50000
    42.9674       18.40000
    42.9779       22.50000
    42.9884       18.40000
    42.9989       30.60000
    43.0095       15.30000
    43.0200       25.50000
    43.0305       22.50000
    43.0410       24.50000
    43.0516       16.30000
    43.0621       18.40000
    43.0726       19.40000
    43.0831       21.40000
    43.0936       24.50000
    43.1042       15.30000
    43.1147       15.30000
    43.1252       19.40000
    43.1357       21.40000
    43.1463       21.40000
    43.1568       16.30000
    43.1673       20.40000
    43.1778       27.60000
    43.1884       25.50000
    43.1989       15.30000
    43.2094       17.40000
    43.2199       18.40000
    43.2304       20.40000
    43.2410       18.40000
    43.2515       16.30000
    43.2620       25.50000
    43.2725       21.40000
    43.2831       20.40000
    43.2936       24.50000
    43.3041       24.50000
    43.3146       23.50000
    43.3251       20.40000
    43.3357       12.30000
    43.3462       13.30000
    43.3567       16.30000
    43.3672       20.40000
    43.3778       15.30000
    43.3883       16.30000
    43.3988       18.40000
    43.4093       12.30000
    43.4198       17.40000
    43.4304       24.50000
    43.4409       25.50000
    43.4514       22.50000
    43.4619       19.40000
    43.4725       25.50000
    43.4830       11.20000
    43.4935       21.40000
    43.5040       17.40000
    43.5146       14.30000
    43.5251       19.40000
    43.5356       28.60000
    43.5461       23.50000
    43.5566       22.50000
    43.5672       15.30000
    43.5777       21.40000
    43.5882       16.30000
    43.5987       19.40000
    43.6093       19.40000
    43.6198       19.40000
    43.6303       24.50000
    43.6408       20.40000
    43.6513       30.60000
    43.6619       18.40000
    43.6724       20.40000
    43.6829       24.50000
    43.6934       15.30000
    43.7040       15.30000
    43.7145       16.30000
    43.7250       22.50000
    43.7355       15.30000
    43.7461       22.50000
    43.7566       14.30000
    43.7671       24.50000
    43.7776       16.30000
    43.7881       23.50000
    43.7987       17.40000
    43.8092       19.40000
    43.8197       15.30000
    43.8302       23.50000
    43.8408       22.50000
    43.8513       25.50000
    43.8618       22.50000
    43.8723       14.30000
    43.8828       21.40000
    43.8934       29.60000
    43.9039       24.50000
    43.9144       20.40000
    43.9249       21.40000
    43.9355       17.40000
    43.9460       14.30000
    43.9565       14.30000
    43.9670       16.30000
    43.9775       16.30000
    43.9881       25.50000
    43.9986       20.40000
    44.0091       19.40000
    44.0196       29.60000
    44.0302       22.50000
    44.0407       17.40000
    44.0512       17.40000
    44.0617       23.50000
    44.0723       23.50000
    44.0828       22.50000
    44.0933       20.40000
    44.1038       19.40000
    44.1143       24.50000
    44.1249       24.50000
    44.1354       20.40000
    44.1459       25.50000
    44.1564       36.80000
    44.1670       22.50000
    44.1775       26.60000
    44.1880       23.50000
    44.1985       28.60000
    44.2090       24.50000
    44.2196       28.60000
    44.2301       34.70000
    44.2406       28.60000
    44.2511       30.60000
    44.2617       28.60000
    44.2722       38.80000
    44.2827       42.90000
    44.2932       46.00000
    44.3037       37.80000
    44.3143       34.70000
    44.3248       58.20000
    44.3353       57.20000
    44.3458       61.30000
    44.3564       71.50000
    44.3669       68.40000
    44.3774       68.40000
    44.3879       75.60000
    44.3985       80.70000
    44.4090       85.80000
    44.4195       97.00000
    44.4300       66.40000
    44.4405       88.80000
    44.4511       98.00000
    44.4616      107.20000
    44.4721      108.30000
    44.4826       95.00000
    44.4932       90.90000
    44.5037       91.90000
    44.5142       96.00000
    44.5247       86.80000
    44.5352       72.50000
    44.5458       82.70000
    44.5563       79.70000
    44.5668       67.40000
    44.5773       56.20000
    44.5879       59.20000
    44.5984       56.20000
    44.6089       57.20000
    44.6194       37.80000
    44.6300       56.20000
    44.6405       31.70000
    44.6510       39.80000
    44.6615       49.00000
    44.6720       46.00000
    44.6826       38.80000
    44.6931       35.70000
    44.7036       31.70000
    44.7141       38.80000
    44.7247       33.70000
    44.7352       33.70000
    44.7457       26.60000
    44.7562       41.90000
    44.7667       32.70000
    44.7773       29.60000
    44.7878       37.80000
    44.7983       39.80000
    44.8088       31.70000
    44.8194       26.60000
    44.8299       47.00000
    44.8404       37.80000
    44.8509       50.00000
    44.8614       41.90000
    44.8720       52.10000
    44.8825       56.20000
    44.8930       56.20000
    44.9035       68.40000
    44.9141       62.30000
    44.9246       59.20000
    44.9351       54.10000
    44.9456       79.70000
    44.9562       88.80000
    44.9667       83.70000
    44.9772       77.60000
    44.9877       81.70000
    44.9982       72.50000
    45.0088       83.70000
    45.0193       78.60000
    45.0298       78.60000
    45.0403       68.40000
    45.0509       78.60000
    45.0614       69.40000
    45.0719       72.50000
    45.0824       72.50000
    45.0929       58.20000
    45.1035       50.00000
    45.1140       61.30000
    45.1245       60.30000
    45.1350       49.00000
    45.1456       42.90000
    45.1561       51.10000
    45.1666       44.90000
    45.1771       37.80000
    45.1877       42.90000
    45.1982       38.80000
    45.2087       33.70000
    45.2192       43.90000
    45.2297       42.90000
    45.2403       22.50000
    45.2508       26.60000
    45.2613       27.60000
    45.2718       32.70000
    45.2824       23.50000
    45.2929       22.50000
    45.3034       28.60000
    45.3139       27.60000
    45.3244       33.70000
    45.3350       23.50000
    45.3455       21.40000
    45.3560       25.50000
    45.3665       23.50000
    45.3771       27.60000
    45.3876       22.50000
    45.3981       18.40000
    45.4086       24.50000
    45.4191       17.40000
    45.4297       27.60000
    45.4402       21.40000
    45.4507       17.40000
    45.4612       18.40000
    45.4718       25.50000
    45.4823       19.40000
    45.4928       23.50000
    45.5033       20.40000
    45.5139       21.40000
    45.5244       27.60000
    45.5349       21.40000
    45.5454       12.30000
    45.5559       19.40000
    45.5665       25.50000
    45.5770       21.40000
    45.5875       17.40000
    45.5980       13.30000
    45.6086       14.30000
    45.6191       27.60000
    45.6296       19.40000
    45.6401       17.40000
    45.6506       17.40000
    45.6612       11.20000
    45.6717       12.30000
    45.6822       17.40000
    45.6927       19.40000
    45.7033       18.40000
    45.7138       15.30000
    45.7243       25.50000
    45.7348       18.40000
    45.7453       20.40000
    45.7559       15.30000
    45.7664       15.30000
    45.7769       15.30000
    45.7874       31.70000
    45.7980       18.40000
    45.8085       15.30000
    45.8190       24.50000
    45.8295       18.40000
    45.8401       14.30000
    45.8506       15.30000
    45.8611       14.30000
    45.8716       22.50000
    45.8821       23.50000
    45.8927       28.60000
    45.9032       16.30000
    45.9137       11.20000
    45.9242       22.50000
    45.9348       23.50000
    45.9453       11.20000
    45.9558       21.40000
    45.9663       20.40000
    45.9768       15.30000
    45.9874       23.50000
    45.9979       18.40000
    46.0084       24.50000
    46.0189        8.20000
    46.0295       17.40000
    46.0400       13.30000
    46.0505       19.40000
    46.0610       20.40000
    46.0716       22.50000
    46.0821       19.40000
    46.0926       17.40000
    46.1031       32.70000
    46.1136       24.50000
    46.1242       24.50000
    46.1347       15.30000
    46.1452       25.50000
    46.1557       21.40000
    46.1663       21.40000
    46.1768       22.50000
    46.1873       24.50000
    46.1978       33.70000
    46.2083       21.40000
    46.2189       26.60000
    46.2294       31.70000
    46.2399       25.50000
    46.2504       36.80000
    46.2610       30.60000
    46.2715       26.60000
    46.2820       37.80000
    46.2925       21.40000
    46.3030       30.60000
    46.3136       26.60000
    46.3241       55.10000
    46.3346       56.20000
    46.3451       40.80000
    46.3557       43.90000
    46.3662       30.60000
    46.3767       41.90000
    46.3872       54.10000
    46.3978       53.10000
    46.4083       42.90000
    46.4188       56.20000
    46.4293       52.10000
    46.4398       39.80000
    46.4504       37.80000
    46.4609       50.00000
    46.4714       54.10000
    46.4819       49.00000
    46.4925       46.00000
    46.5030       42.90000
    46.5135       36.80000
    46.5240       37.80000
    46.5345       33.70000
    46.5451       53.10000
    46.5556       29.60000
    46.5661       39.80000
    46.5766       24.50000
    46.5872       24.50000
    46.5977       30.60000
    46.6082       30.60000
    46.6187       21.40000
    46.6292       37.80000
    46.6398       29.60000
    46.6503       19.40000
    46.6608       19.40000
    46.6713       22.50000
    46.6819       20.40000
    46.6924       29.60000
    46.7029       19.40000
    46.7134       19.40000
    46.7240       23.50000
    46.7345       23.50000
    46.7450       25.50000
    46.7555       16.30000
    46.7660       29.60000
    46.7766       24.50000
    46.7871       13.30000
    46.7976       15.30000
    46.8081       27.60000
    46.8187       23.50000
    46.8292       27.60000
    46.8397       28.60000
    46.8502       29.60000
    46.8607       24.50000
    46.8713       14.30000
    46.8818       15.30000
    46.8923       15.30000
    46.9028       22.50000
    46.9134       23.50000
    46.9239       23.50000
    46.9344       23.50000
    46.9449       21.40000
    46.9555       20.40000
    46.9660       19.40000
    46.9765       14.30000
    46.9870       15.30000
    46.9975       13.30000
    47.0081       23.50000
    47.0186       16.30000
    47.0291       11.20000
    47.0396       19.40000
    47.0502       18.40000
    47.0607       18.40000
    47.0712       15.30000
    47.0817       20.40000
    47.0922       15.30000
    47.1028       15.30000
    47.1133       14.30000
    47.1238       14.30000
    47.1343       28.60000
    47.1449       20.40000
    47.1554       19.40000
    47.1659       23.50000
    47.1764       20.40000
    47.1869       19.40000
    47.1975       12.30000
    47.2080       20.40000
    47.2185       16.30000
    47.2290       25.50000
    47.2396       16.30000
    47.2501       12.30000
    47.2606       31.70000
    47.2711       15.30000
    47.2817       15.30000
    47.2922        9.20000
    47.3027       23.50000
    47.3132       14.30000
    47.3237       22.50000
    47.3343       16.30000
    47.3448       21.40000
    47.3553       17.40000
    47.3658       11.20000
    47.3764       18.40000
    47.3869       21.40000
    47.3974       16.30000
    47.4079       21.40000
    47.4184       18.40000
    47.4290       19.40000
    47.4395       12.30000
    47.4500       28.60000
    47.4605       18.40000
    47.4711       11.20000
    47.4816       23.50000
    47.4921       22.50000
    47.5026       28.60000
    47.5131       19.40000
    47.5237       13.30000
    47.5342       17.40000
    47.5447       27.60000
    47.5552       20.40000
    47.5658       18.40000
    47.5763       16.30000
    47.5868       15.30000
    47.5973       22.50000
    47.6079       18.40000
    47.6184       16.30000
    47.6289       16.30000
    47.6394       21.40000
    47.6499       15.30000
    47.6605       21.40000
    47.6710       14.30000
    47.6815       17.40000
    47.6920       21.40000
    47.7026       19.40000
    47.7131       16.30000
    47.7236       24.50000
    47.7341       25.50000
    47.7446       23.50000
    47.7552       23.50000
    47.7657       20.40000
    47.7762       16.30000
    47.7867       12.30000
    47.7973       21.40000
    47.8078       29.60000
    47.8183       22.50000
    47.8288       16.30000
    47.8394       23.50000
    47.8499       26.60000
    47.8604       25.50000
    47.8709       22.50000
    47.8814       14.30000
    47.8920       21.40000
    47.9025       18.40000
    47.9130       31.70000
    47.9235       19.40000
    47.9341       29.60000
    47.9446       19.40000
    47.9551       19.40000
    47.9656       24.50000
    47.9761       15.30000
    47.9867       27.60000
    47.9972       37.80000
    48.0077       26.60000
    48.0182       36.80000
    48.0288       28.60000
    48.0393       36.80000
    48.0498       24.50000
    48.0603       42.90000
    48.0708       53.10000
    48.0814       39.80000
    48.0919       28.60000
    48.1024       43.90000
    48.1129       51.10000
    48.1235       35.70000
    48.1340       50.00000
    48.1445       42.90000
    48.1550       29.60000
    48.1656       43.90000
    48.1761       37.80000
    48.1866       29.60000
    48.1971       39.80000
    48.2076       27.60000
    48.2182       30.60000
    48.2287       26.60000
    48.2392       25.50000
    48.2497       25.50000
    48.2603       21.40000
    48.2708       26.60000
    48.2813       21.40000
    48.2918       26.60000
    48.3023       25.50000
    48.3129       20.40000
    48.3234       32.70000
    48.3339       29.60000
    48.3444       32.70000
    48.3550       20.40000
    48.3655       25.50000
    48.3760       24.50000
    48.3865       17.40000
    48.3970       20.40000
    48.4076       16.30000
    48.4181       25.50000
    48.4286       23.50000
    48.4391       24.50000
    48.4497       21.40000
    48.4602       20.40000
    48.4707       13.30000
    48.4812       26.60000
    48.4918       16.30000
    48.5023       18.40000
    48.5128       16.30000
    48.5233       21.40000
    48.5338       21.40000
    48.5444       26.60000
    48.5549       20.40000
    48.5654       20.40000
    48.5759       18.40000
    48.5865       19.40000
    48.5970       19.40000
    48.6075       15.30000
    48.6180       21.40000
    48.6285       21.40000
    48.6391       27.60000
    48.6496       31.70000
    48.6601       34.70000
    48.6706       16.30000
    48.6812       26.60000
    48.6917       30.60000
    48.7022       24.50000
    48.7127       25.50000
    48.7233       24.50000
    48.7338       28.60000
    48.7443       17.40000
    48.7548       34.70000
    48.7653       30.60000
    48.7759       23.50000
    48.7864       42.90000
    48.7969       25.50000
    48.8074       21.40000
    48.8180       22.50000
    48.8285       24.50000
    48.8390       30.60000
    48.8495       28.60000
    48.8600       22.50000
    48.8706       36.80000
    48.8811       30.60000
    48.8916       41.90000
    48.9021       29.60000
    48.9127       34.70000
    48.9232       41.90000
    48.9337       34.70000
    48.9442       26.60000
    48.9547       47.00000
    48.9653       42.90000
    48.9758       19.40000
    48.9863       39.80000
    48.9968       41.90000
    49.0074       48.00000
    49.0179       50.00000
    49.0284       39.80000
    49.0389       40.80000
    49.0495       50.00000
    49.0600       54.10000
    49.0705       50.00000
    49.0810       61.30000
    49.0915       66.40000
    49.1021       69.40000
    49.1126       83.70000
    49.1231       89.90000
    49.1336       91.90000
    49.1442       96.00000
    49.1547       76.60000
    49.1652      108.30000
    49.1757      117.40000
    49.1862      120.50000
    49.1968      143.00000
    49.2073      153.20000
    49.2178      162.40001
    49.2283      153.20000
    49.2389      185.90001
    49.2494      175.70000
    49.2599      175.70000
    49.2704      200.20001
    49.2810      196.10001
    49.2915      188.90001
    49.3020      169.50000
    49.3125      180.80000
    49.3230      187.90001
    49.3336      172.60001
    49.3441      160.30000
    49.3546      147.10001
    49.3651      139.90001
    49.3757      132.80000
    49.3862      119.50000
    49.3967      110.30000
    49.4072       92.90000
    49.4177      109.30000
    49.4283       86.80000
    49.4388       91.90000
    49.4493       87.80000
    49.4598       89.90000
    49.4704       87.80000
    49.4809       75.60000
    49.4914       76.60000
    49.5019       87.80000
    49.5124       88.80000
    49.5230       47.00000
    49.5335       52.10000
    49.5440       59.20000
    49.5545       67.40000
    49.5651       62.30000
    49.5756       62.30000
    49.5861       43.90000
    49.5966       50.00000
    49.6072       50.00000
    49.6177       43.90000
    49.6282       54.10000
    49.6387       48.00000
    49.6492       49.00000
    49.6598       32.70000
    49.6703       53.10000
    49.6808       40.80000
    49.6913       43.90000
    49.7019       39.80000
    49.7124       37.80000
    49.7229       43.90000
    49.7334       43.90000
    49.7439       44.90000
    49.7545       31.70000
    49.7650       39.80000
    49.7755       34.70000
    49.7860       27.60000
    49.7966       39.80000
    49.8071       40.80000
    49.8176       40.80000
    49.8281       38.80000
    49.8386       40.80000
    49.8492       35.70000
    49.8597       32.70000
    49.8702       38.80000
    49.8807       41.90000
    49.8913       47.00000
    49.9018       39.80000
    49.9123       53.10000
    49.9228       39.80000
    49.9334       52.10000
    49.9439       36.80000
    49.9544       51.10000
    49.9649       50.00000
    49.9754       49.00000
    49.9860       55.10000
    49.9965       55.10000
    50.0070       56.20000
    50.0175       62.30000
    50.0281       67.40000
    50.0386       83.70000
    50.0491       69.40000
    50.0596       77.60000
    50.0701       71.50000
    50.0807       80.70000
    50.0912       84.80000
    50.1017       88.80000
    50.1122       88.80000
    50.1228       97.00000
    50.1333       81.70000
    50.1438      104.20000
    50.1543       91.90000
    50.1649       91.90000
    50.1754      102.10000
    50.1859      105.20000
    50.1964      107.20000
    50.2069      112.30000
    50.2175      121.50000
    50.2280      121.50000
    50.2385      118.50000
    50.2490      128.70000
    50.2596      132.80000
    50.2701      146.00000
    50.2806      160.30000
    50.2911      154.20000
    50.3016      187.90001
    50.3122      185.90001
    50.3227      176.70000
    50.3332      193.00000
    50.3437      188.90001
    50.3543      208.30000
    50.3648      216.50000
    50.3753      210.40001
    50.3858      215.50000
    50.3963      223.70000
    50.4069      231.80000
    50.4174      203.20001
    50.4279      224.70000
    50.4384      199.10001
    50.4490      197.10001
    50.4595      200.20001
    50.4700      193.00000
    50.4805      187.90001
    50.4911      183.80000
    50.5016      205.30000
    50.5121      184.80000
    50.5226      191.00000
    50.5331      191.00000
    50.5437      190.00000
    50.5542      176.70000
    50.5647      203.20001
    50.5752      175.70000
    50.5858      187.90001
    50.5963      166.50000
    50.6068      147.10001
    50.6173      146.00000
    50.6278      156.30000
    50.6384      129.70000
    50.6489      142.00000
    50.6594      149.10001
    50.6699      114.40000
    50.6805      123.60000
    50.6910      108.30000
    50.7015      101.10001
    50.7120       95.00000
    50.7225       88.80000
    50.7331       96.00000
    50.7436       81.70000
    50.7541       71.50000
    50.7646       61.30000
    50.7752       65.40000
    50.7857       69.40000
    50.7962       65.40000
    50.8067       56.20000
    50.8173       67.40000
    50.8278       52.10000
    50.8383       54.10000
    50.8488       61.30000
    50.8593       49.00000
    50.8699       44.90000
    50.8804       31.70000
    50.8909       42.90000
    50.9014       35.70000
    50.9120       26.60000
    50.9225       26.60000
    50.9330       31.70000
    50.9435       37.80000
    50.9540       30.60000
    50.9646       38.80000
    50.9751       18.40000
    50.9856       37.80000
    50.9961       26.60000
    51.0067       32.70000
    51.0172       25.50000
    51.0277       29.60000
    51.0382       33.70000
    51.0488       27.60000
    51.0593       25.50000
    51.0698       29.60000
    51.0803       23.50000
    51.0908       29.60000
    51.1014       19.40000
    51.1119       21.40000
    51.1224       22.50000
    51.1329       21.40000
    51.1435       16.30000
    51.1540       28.60000
    51.1645       22.50000
    51.1750       19.40000
    51.1855       12.30000
    51.1961       23.50000
    51.2066       30.60000
    51.2171       24.50000
    51.2276       15.30000
    51.2382       27.60000
    51.2487       16.30000
    51.2592       18.40000
    51.2697       13.30000
    51.2802       29.60000
    51.2908       21.40000
    51.3013       21.40000
    51.3118       18.40000
    51.3223       22.50000
    51.3329       31.70000
    51.3434       20.40000
    51.3539       23.50000
    51.3644       19.40000
    51.3750       22.50000
    51.3855       20.40000
    51.3960       21.40000
    51.4065       17.40000
    51.4170       25.50000
    51.4276       19.40000
    51.4381       27.60000
    51.4486       24.50000
    51.4591       29.60000
    51.4697       19.40000
    51.4802       30.60000
    51.4907       36.80000
    51.5012       24.50000
    51.5117       25.50000
    51.5223       24.50000
    51.5328       20.40000
    51.5433       17.40000
    51.5538       14.30000
    51.5644       19.40000
    51.5749       22.50000
    51.5854       17.40000
    51.5959       18.40000
    51.6064       28.60000
    51.6170       24.50000
    51.6275       20.40000
    51.6380       17.40000
    51.6485       22.50000
    51.6591       26.60000
    51.6696       26.60000
    51.6801       31.70000
    51.6906       21.40000
    51.7012       23.50000
    51.7117       25.50000
    51.7222       31.70000
    51.7327       28.60000
    51.7432       27.60000
    51.7538       21.40000
    51.7643       24.50000
    51.7748       21.40000
    51.7853       19.40000
    51.7959       23.50000
    51.8064       20.40000
    51.8169       29.60000
    51.8274       21.40000
    51.8379       17.40000
    51.8485       21.40000
    51.8590       31.70000
    51.8695       29.60000
    51.8800       27.60000
    51.8906       39.80000
    51.9011       25.50000
    51.9116       26.60000
    51.9221       30.60000
    51.9327       28.60000
    51.9432       29.60000
    51.9537       33.70000
    51.9642       41.90000
    51.9747       28.60000
    51.9853       41.90000
    51.9958       34.70000
    52.0063       31.70000
    52.0168       41.90000
    52.0274       29.60000
    52.0379       33.70000
    52.0484       35.70000
    52.0589       38.80000
    52.0694       44.90000
    52.0800       32.70000
    52.0905       31.70000
    52.1010       49.00000
    52.1115       35.70000
    52.1221       28.60000
    52.1326       48.00000
    52.1431       54.10000
    52.1536       53.10000
    52.1641       56.20000
    52.1747       57.20000
    52.1852       68.40000
    52.1957       53.10000
    52.2062       49.00000
    52.2168       62.30000
    52.2273       69.40000
    52.2378       58.20000
    52.2483       82.70000
    52.2589       66.40000
    52.2694       86.80000
    52.2799       94.00000
    52.2904       91.90000
    52.3009       88.80000
    52.3115       97.00000
    52.3220      115.40000
    52.3325      129.70000
    52.3430      142.00000
    52.3536      147.10001
    52.3641      142.00000
    52.3746      161.40001
    52.3851      171.60001
    52.3956      180.80000
    52.4062      199.10001
    52.4167      209.40001
    52.4272      241.00000
    52.4377      274.70001
    52.4483      277.80002
    52.4588      305.39999
    52.4693      354.39999
    52.4798      414.60001
    52.4904      418.70001
    52.5009      460.60001
    52.5114      485.10001
    52.5219      467.70001
    52.5324      520.79999
    52.5430      503.50000
    52.5535      523.90002
    52.5640      536.20001
    52.5745      521.90002
    52.5851      563.70001
    52.5956      546.40002
    52.6061      546.40002
    52.6166      553.50000
    52.6271      489.20001
    52.6377      491.20001
    52.6482      473.89999
    52.6587      431.00000
    52.6692      460.60001
    52.6798      421.80002
    52.6903      385.00000
    52.7008      404.40002
    52.7113      332.89999
    52.7218      307.39999
    52.7324      319.60001
    52.7429      283.89999
    52.7534      303.30002
    52.7639      274.70001
    52.7745      276.80002
    52.7850      268.60001
    52.7955      226.70000
    52.8060      215.50000
    52.8166      228.80000
    52.8271      218.50000
    52.8376      199.10001
    52.8481      193.00000
    52.8586      163.40001
    52.8692      183.80000
    52.8797      164.40001
    52.8902      157.30000
    52.9007      162.40001
    52.9113      142.00000
    52.9218      128.70000
    52.9323      130.70000
    52.9428      105.20000
    52.9533      113.40000
    52.9639       91.90000
    52.9744       88.80000
    52.9849       88.80000
    52.9954       83.70000
    53.0060       87.80000
    53.0165       80.70000
    53.0270       67.40000
    53.0375       74.60000
    53.0480       70.50000
    53.0586       72.50000
    53.0691       71.50000
    53.0796       61.30000
    53.0901       68.40000
    53.1007       66.40000
    53.1112       67.40000
    53.1217       56.20000
    53.1322       60.30000
    53.1428       63.30000
    53.1533       55.10000
    53.1638       57.20000
    53.1743       57.20000
    53.1848       62.30000
    53.1954       54.10000
    53.2059       58.20000
    53.2164       44.90000
    53.2269       56.20000
    53.2375       56.20000
    53.2480       50.00000
    53.2585       48.00000
    53.2690       48.00000
    53.2795       43.90000
    53.2901       38.80000
    53.3006       46.00000
    53.3111       33.70000
    53.3216       38.80000
    53.3322       37.80000
    53.3427       38.80000
    53.3532       39.80000
    53.3637       30.60000
    53.3743       24.50000
    53.3848       36.80000
    53.3953       30.60000
    53.4058       31.70000
    53.4163       41.90000
    53.4269       33.70000
    53.4374       29.60000
    53.4479       23.50000
    53.4584       21.40000
    53.4690       27.60000
    53.4795       36.80000
    53.4900       23.50000
    53.5005       24.50000
    53.5110       33.70000
    53.5216       31.70000
    53.5321       26.60000
    53.5426       28.60000
    53.5531       12.30000
    53.5637       28.60000
    53.5742       23.50000
    53.5847       22.50000
    53.5952       23.50000
    53.6057       19.40000
    53.6163       18.40000
    53.6268       23.50000
    53.6373       17.40000
    53.6478       23.50000
    53.6584       27.60000
    53.6689       18.40000
    53.6794       14.30000
    53.6899       18.40000
    53.7005       27.60000
    53.7110       31.70000
    53.7215       18.40000
    53.7320       25.50000
    53.7425       23.50000
    53.7531       27.60000
    53.7636       25.50000
    53.7741       20.40000
    53.7846       26.60000
    53.7952       23.50000
    53.8057       26.60000
    53.8162       24.50000
    53.8267       19.40000
    53.8372       18.40000
    53.8478       18.40000
    53.8583       24.50000
    53.8688       23.50000
    53.8793       27.60000
    53.8899       26.60000
    53.9004       20.40000
    53.9109       24.50000
    53.9214       23.50000
    53.9319       21.40000
    53.9425       19.40000
    53.9530       25.50000
    53.9635       22.50000
    53.9740       18.40000
    53.9846       27.60000
    53.9951       22.50000
    54.0056       24.50000
    54.0161       23.50000
    54.0267       23.50000
    54.0372       25.50000
    54.0477       27.60000
    54.0582       23.50000
    54.0687       24.50000
    54.0793       16.30000
    54.0898       22.50000
    54.1003       15.30000
    54.1108       25.50000
    54.1214        9.20000
    54.1319       19.40000
    54.1424       20.40000
    54.1529       21.40000
    54.1634       10.20000
    54.1740       27.60000
    54.1845       25.50000
    54.1950       23.50000
    54.2055       17.40000
    54.2161       28.60000
    54.2266       28.60000
    54.2371       32.70000
    54.2476       23.50000
    54.2582       27.60000
    54.2687       25.50000
    54.2792       18.40000
    54.2897       30.60000
    54.3002       18.40000
    54.3108       21.40000
    54.3213       23.50000
    54.3318       28.60000
    54.3423       17.40000
    54.3529       20.40000
    54.3634       27.60000
    54.3739       29.60000
    54.3844       24.50000
    54.3949       25.50000
    54.4055       22.50000
    54.4160       24.50000
    54.4265       21.40000
    54.4370       22.50000
    54.4476       28.60000
    54.4581       23.50000
    54.4686       30.60000
    54.4791       27.60000
    54.4896       26.60000
    54.5002       33.70000
    54.5107       25.50000
    54.5212       30.60000
    54.5317       28.60000
    54.5423       25.50000
    54.5528       28.60000
    54.5633       33.70000
    54.5738       25.50000
    54.5844       25.50000
    54.5949       25.50000
    54.6054       32.70000
    54.6159       39.80000
    54.6264       38.80000
    54.6370       37.80000
    54.6475       38.80000
    54.6580       44.90000
    54.6685       36.80000
    54.6791       47.00000
    54.6896       66.40000
    54.7001       52.10000
    54.7106       52.10000
    54.7211       40.80000
    54.7317       48.00000
    54.7422       48.00000
    54.7527       57.20000
    54.7632       59.20000
    54.7738       58.20000
    54.7843       70.50000
    54.7948       67.40000
    54.8053       63.30000
    54.8158       72.50000
    54.8264       63.30000
    54.8369       90.90000
    54.8474       99.10000
    54.8579      101.10001
    54.8685      120.50000
    54.8790      132.80000
    54.8895      117.40000
    54.9000      151.10001
    54.9106      142.00000
    54.9211      161.40001
    54.9316      179.70000
    54.9421      201.20001
    54.9526      221.60001
    54.9632      210.40001
    54.9737      223.70000
    54.9842      253.30000
    54.9947      234.90001
    55.0053      239.00000
    55.0158      223.70000
    55.0263      234.90001
    55.0368      218.50000
    55.0473      235.90001
    55.0579      211.40001
    55.0684      218.50000
    55.0789      181.80000
    55.0894      191.00000
    55.1000      188.90001
    55.1105      176.70000
    55.1210      151.10001
    55.1315      172.60001
    55.1421      125.60000
    55.1526      137.90001
    55.1631      144.00000
    55.1736      123.60000
    55.1841      103.10000
    55.1947      125.60000
    55.2052      104.20000
    55.2157      111.30000
    55.2262       85.80000
    55.2368       88.80000
    55.2473      109.30000
    55.2578      102.10000
    55.2683      108.30000
    55.2788       90.90000
    55.2894       94.00000
    55.2999      104.20000
    55.3104      114.40000
    55.3209      114.40000
    55.3315      130.70000
    55.3420      110.30000
    55.3525      126.60000
    55.3630      133.80000
    55.3735      130.70000
    55.3841      144.00000
    55.3946      157.30000
    55.4051      188.90001
    55.4156      145.00000
    55.4262      210.40001
    55.4367      223.70000
    55.4472      227.70000
    55.4577      260.39999
    55.4683      282.89999
    55.4788      264.50000
    55.4893      289.00000
    55.4998      316.60001
    55.5103      287.00000
    55.5209      290.00000
    55.5314      289.00000
    55.5419      275.70001
    55.5524      287.00000
    55.5630      255.30000
    55.5735      278.80002
    55.5840      230.80000
    55.5945      258.39999
    55.6050      215.50000
    55.6156      188.90001
    55.6261      184.80000
    55.6366      172.60001
    55.6471      173.60001
    55.6577      139.90001
    55.6682      147.10001
    55.6787      128.70000
    55.6892      121.50000
    55.6998      100.10001
    55.7103      101.10001
    55.7208      116.40000
    55.7313      109.30000
    55.7418       87.80000
    55.7524       76.60000
    55.7629       85.80000
    55.7734       69.40000
    55.7839       71.50000
    55.7945       53.10000
    55.8050       74.60000
    55.8155       62.30000
    55.8260       54.10000
    55.8365       62.30000
    55.8471       51.10000
    55.8576       57.20000
    55.8681       35.70000
    55.8786       48.00000
    55.8892       37.80000
    55.8997       41.90000
    55.9102       46.00000
    55.9207       44.90000
    55.9312       38.80000
    55.9418       37.80000
    55.9523       36.80000
    55.9628       40.80000
    55.9733       29.60000
    55.9839       34.70000
    55.9944       48.00000
    56.0049       28.60000
    56.0154       37.80000
    56.0260       37.80000
    56.0365       31.70000
    56.0470       26.60000
    56.0575       29.60000
    56.0680       43.90000
    56.0786       36.80000
    56.0891       42.90000
    56.0996       21.40000
    56.1101       32.70000
    56.1207       27.60000
    56.1312       37.80000
    56.1417       38.80000
    56.1522       34.70000
    56.1627       23.50000
    56.1733       41.90000
    56.1838       36.80000
    56.1943       36.80000
    56.2048       36.80000
    56.2154       46.00000
    56.2259       36.80000
    56.2364       35.70000
    56.2469       35.70000
    56.2574       25.50000
    56.2680       38.80000
    56.2785       53.10000
    56.2890       43.90000
    56.2995       47.00000
    56.3101       52.10000
    56.3206       49.00000
    56.3311       38.80000
    56.3416       41.90000
    56.3522       57.20000
    56.3627       54.10000
    56.3732       56.20000
    56.3837       57.20000
    56.3942       62.30000
    56.4048       74.60000
    56.4153       73.50000
    56.4258       55.10000
    56.4363       74.60000
    56.4469       65.40000
    56.4574       74.60000
    56.4679       74.60000
    56.4784       77.60000
    56.4889       74.60000
    56.4995      115.40000
    56.5100       78.60000
    56.5205      101.10001
    56.5310       89.90000
    56.5416      123.60000
    56.5521      128.70000
    56.5626      147.10001
    56.5731      144.00000
    56.5837      167.50000
    56.5942      147.10001
    56.6047      176.70000
    56.6152      184.80000
    56.6257      195.10001
    56.6363      211.40001
    56.6468      224.70000
    56.6573      225.70000
    56.6678      254.30000
    56.6784      248.20000
    56.6889      267.60001
    56.6994      259.39999
    56.7099      296.20001
    56.7204      261.39999
    56.7310      277.80002
    56.7415      284.89999
    56.7520      288.00000
    56.7625      298.20001
    56.7731      287.00000
    56.7836      259.39999
    56.7941      243.10001
    56.8046      231.80000
    56.8151      237.90001
    56.8257      212.40001
    56.8362      208.30000
    56.8467      181.80000
    56.8572      170.50000
    56.8678      192.00000
    56.8783      164.40001
    56.8888      168.50000
    56.8993      145.00000
    56.9099      122.50000
    56.9204      134.80000
    56.9309      109.30000
    56.9414       97.00000
    56.9519      107.20000
    56.9625       88.80000
    56.9730      113.40000
    56.9835       87.80000
    56.9940       76.60000
    57.0046       89.90000
    57.0151       77.60000
    57.0256       71.50000
    57.0361       60.30000
    57.0466       63.30000
    57.0572       66.40000
    57.0677       60.30000
    57.0782       53.10000
    57.0887       51.10000
    57.0993       62.30000
    57.1098       55.10000
    57.1203       57.20000
    57.1308       46.00000
    57.1413       38.80000
    57.1519       44.90000
    57.1624       38.80000
    57.1729       37.80000
    57.1834       34.70000
    57.1940       40.80000
    57.2045       33.70000
    57.2150       41.90000
    57.2255       41.90000
    57.2361       34.70000
    57.2466       35.70000
    57.2571       31.70000
    57.2676       33.70000
    57.2781       42.90000
    57.2887       40.80000
    57.2992       27.60000
    57.3097       39.80000
    57.3202       38.80000
    57.3308       30.60000
    57.3413       32.70000
    57.3518       30.60000
    57.3623       30.60000
    57.3728       38.80000
    57.3834       36.80000
    57.3939       30.60000
    57.4044       40.80000
    57.4149       33.70000
    57.4255       34.70000
    57.4360       42.90000
    57.4465       36.80000
    57.4570       38.80000
    57.4676       48.00000
    57.4781       52.10000
    57.4886       33.70000
    57.4991       33.70000
    57.5096       40.80000
    57.5202       33.70000
    57.5307       48.00000
    57.5412       40.80000
    57.5517       55.10000
    57.5623       54.10000
    57.5728       46.00000
    57.5833       48.00000
    57.5938       43.90000
    57.6043       60.30000
    57.6149       54.10000
    57.6254       44.90000
    57.6359       50.00000
    57.6464       54.10000
    57.6570       68.40000
    57.6675       43.90000
    57.6780       53.10000
    57.6885       44.90000
    57.6990       27.60000
    57.7096       42.90000
    57.7201       34.70000
    57.7306       48.00000
    57.7411       38.80000
    57.7517       35.70000
    57.7622       42.90000
    57.7727       30.60000
    57.7832       48.00000
    57.7938       35.70000
    57.8043       46.00000
    57.8148       47.00000
    57.8253       27.60000
    57.8358       32.70000
    57.8464       24.50000
    57.8569       28.60000
    57.8674       37.80000
    57.8779       39.80000
    57.8885       29.60000
    57.8990       29.60000
    57.9095       38.80000
    57.9200       28.60000
    57.9305       32.70000
    57.9411       44.90000
    57.9516       32.70000
    57.9621       33.70000
    57.9726       33.70000
    57.9832       29.60000
    57.9937       48.00000
    58.0042       38.80000
    58.0147       40.80000
    58.0252       43.90000
    58.0358       33.70000
    58.0463       36.80000
    58.0568       46.00000
    58.0673       46.00000
    58.0779       56.20000
    58.0884       48.00000
    58.0989       58.20000
    58.1094       47.00000
    58.1200       48.00000
    58.1305       58.20000
    58.1410       64.30000
    58.1515       81.70000
    58.1620       75.60000
    58.1726       60.30000
    58.1831       64.30000
    58.1936       94.00000
    58.2041       94.00000
    58.2147      105.20000
    58.2252       99.10000
    58.2357      100.10001
    58.2462      115.40000
    58.2567      126.60000
    58.2673      112.30000
    58.2778      135.80000
    58.2883      152.20000
    58.2988      155.20000
    58.3094      154.20000
    58.3199      173.60001
    58.3304      145.00000
    58.3409      174.60001
    58.3515      172.60001
    58.3620      176.70000
    58.3725      164.40001
    58.3830      160.30000
    58.3935      159.30000
    58.4041      156.30000
    58.4146      137.90001
    58.4251      122.50000
    58.4356      157.30000
    58.4462      133.80000
    58.4567      126.60000
    58.4672      108.30000
    58.4777      106.20000
    58.4882      112.30000
    58.4988      101.10001
    58.5093       96.00000
    58.5198      107.20000
    58.5303       88.80000
    58.5409       74.60000
    58.5514       74.60000
    58.5619       71.50000
    58.5724       74.60000
    58.5829       55.10000
    58.5935       51.10000
    58.6040       53.10000
    58.6145       53.10000
    58.6250       48.00000
    58.6356       40.80000
    58.6461       61.30000
    58.6566       41.90000
    58.6671       43.90000
    58.6777       52.10000
    58.6882       39.80000
    58.6987       47.00000
    58.7092       34.70000
    58.7197       27.60000
    58.7303       41.90000
    58.7408       43.90000
    58.7513       22.50000
    58.7618       39.80000
    58.7724       39.80000
    58.7829       34.70000
    58.7934       23.50000
    58.8039       34.70000
    58.8144       30.60000
    58.8250       33.70000
    58.8355       17.40000
    58.8460       22.50000
    58.8565       22.50000
    58.8671       35.70000
    58.8776       31.70000
    58.8881       20.40000
    58.8986       37.80000
    58.9091       25.50000
    58.9197       20.40000
    58.9302       28.60000
    58.9407       22.50000
    58.9512       19.40000
    58.9618       18.40000
    58.9723       28.60000
    58.9828       25.50000
    58.9933       24.50000
    59.0039       16.30000
    59.0144       22.50000
    59.0249       23.50000
    59.0354       22.50000
    59.0459       27.60000
    59.0565       22.50000
    59.0670       27.60000
    59.0775       19.40000
    59.0880       24.50000
    59.0986       24.50000
    59.1091       21.40000
    59.1196       14.30000
    59.1301       27.60000
    59.1406       33.70000
    59.1512       28.60000
    59.1617       29.60000
    59.1722       25.50000
    59.1827       20.40000
    59.1933       18.40000
    59.2038       42.90000
    59.2143       27.60000
    59.2248       30.60000
    59.2354       23.50000
    59.2459       20.40000
    59.2564       24.50000
    59.2669       24.50000
    59.2774       22.50000
    59.2880       14.30000
    59.2985       17.40000
    59.3090       14.30000
    59.3195       31.70000
    59.3301       24.50000
    59.3406       17.40000
    59.3511       32.70000
    59.3616       22.50000
    59.3721       15.30000
    59.3827       24.50000
    59.3932       12.30000
    59.4037       13.30000
    59.4142       17.40000
    59.4248       29.60000
    59.4353       31.70000
    59.4458       22.50000
    59.4563       22.50000
    59.4668       23.50000
    59.4774       16.30000
    59.4879       22.50000
    59.4984       23.50000
    59.5089       20.40000
    59.5195       18.40000
    59.5300       23.50000
    59.5405       11.20000
    59.5510       21.40000
    59.5616       14.30000
    59.5721       21.40000
    59.5826       16.30000
    59.5931       28.60000
    59.6036       22.50000
    59.6142       27.60000
    59.6247       29.60000
    59.6352       26.60000
    59.6457       21.40000
    59.6563       19.40000
    59.6668       32.70000
    59.6773       23.50000
    59.6878       17.40000
    59.6983       30.60000
    59.7089       20.40000
    59.7194       21.40000
    59.7299       17.40000
    59.7404       29.60000
    59.7510       26.60000
    59.7615       23.50000
    59.7720       26.60000
    59.7825       17.40000
    59.7931       19.40000
    59.8036       20.40000
    59.8141       30.60000
    59.8246       20.40000
    59.8351       17.40000
    59.8457       19.40000
    59.8562       16.30000
    59.8667       19.40000
    59.8772       20.40000
    59.8878       20.40000
    59.8983       14.30000
    59.9088       24.50000
    59.9193       21.40000
    59.9298       15.30000
    59.9404       17.40000
    59.9509       22.50000
    59.9614       14.30000
    59.9719       28.60000
    59.9825       21.40000
    59.9930       18.40000
    60.0035       17.40000
    60.0140       18.40000
    60.0245       21.40000
    60.0351       32.70000
    60.0456       18.40000
    60.0561       20.40000
    60.0666       22.50000
    60.0772       16.30000
    60.0877       16.30000
    60.0982       18.40000
    60.1087       22.50000
    60.1193       20.40000
    60.1298       14.30000
    60.1403       24.50000
    60.1508       17.40000
    60.1613       15.30000
    60.1719       16.30000
    60.1824       21.40000
    60.1929       28.60000
    60.2034       17.40000
    60.2140       19.40000
    60.2245       26.60000
    60.2350       21.40000
    60.2455       13.30000
    60.2560       15.30000
    60.2666       18.40000
    60.2771       14.30000
    60.2876       23.50000
    60.2981       20.40000
    60.3087       16.30000
    60.3192       18.40000
    60.3297       12.30000
    60.3402       19.40000
    60.3507       18.40000
    60.3613       26.60000
    60.3718       16.30000
    60.3823       19.40000
    60.3928       21.40000
    60.4034       18.40000
    60.4139       25.50000
    60.4244       16.30000
    60.4349       17.40000
    60.4455       21.40000
    60.4560       15.30000
    60.4665       14.30000
    60.4770       22.50000
    60.4875       28.60000
    60.4981       24.50000
    60.5086        9.20000
    60.5191       21.40000
    60.5296       23.50000
    60.5402       19.40000
    60.5507       24.50000
    60.5612       18.40000
    60.5717       17.40000
    60.5822       18.40000
    60.5928       22.50000
    60.6033       16.30000
    60.6138       18.40000
    60.6243       16.30000
    60.6349       26.60000
    60.6454       20.40000
    60.6559       21.40000
    60.6664       23.50000
    60.6770       19.40000
    60.6875       23.50000
    60.6980       16.30000
    60.7085       26.60000
    60.7190       23.50000
    60.7296       23.50000
    60.7401       15.30000
    60.7506       17.40000
    60.7611       16.30000
    60.7717       16.30000
    60.7822       12.30000
    60.7927       13.30000
    60.8032       20.40000
    60.8137       20.40000
    60.8243       28.60000
    60.8348       16.30000
    60.8453       24.50000
    60.8558       20.40000
    60.8664       25.50000
    60.8769       17.40000
    60.8874       18.40000
    60.8979       23.50000
    60.9084       15.30000
    60.9190       16.30000
    60.9295       16.30000
    60.9400       29.60000
    60.9505       30.60000
    60.9611       29.60000
    60.9716       24.50000
    60.9821       21.40000
    60.9926       31.70000
    61.0032       27.60000
    61.0137       25.50000
    61.0242       19.40000
    61.0347       26.60000
    61.0452       35.70000
    61.0558       23.50000
    61.0663       35.70000
    61.0768       21.40000
    61.0873       22.50000
    61.0979       24.50000
    61.1084       40.80000
    61.1189       25.50000
    61.1294       23.50000
    61.1399       26.60000
    61.1505       25.50000
    61.1610       27.60000
    61.1715       25.50000
    61.1820       29.60000
    61.1926       27.60000
    61.2031       34.70000
    61.2136       34.70000
    61.2241       32.70000
    61.2346       29.60000
    61.2452       31.70000
    61.2557       38.80000
    61.2662       44.90000
    61.2767       38.80000
    61.2873       28.60000
    61.2978       26.60000
    61.3083       48.00000
    61.3188       39.80000
    61.3294       51.10000
    61.3399       36.80000
    61.3504       47.00000
    61.3609       43.90000
    61.3714       48.00000
    61.3820       35.70000
    61.3925       67.40000
    61.4030       51.10000
    61.4135       44.90000
    61.4241       60.30000
    61.4346       70.50000
    61.4451       75.60000
    61.4556       63.30000
    61.4661       56.20000
    61.4767       72.50000
    61.4872       76.60000
    61.4977       77.60000
    61.5082       81.70000
    61.5188       84.80000
    61.5293       83.70000
    61.5398      106.20000
    61.5503       96.00000
    61.5609       86.80000
    61.5714      121.50000
    61.5819      131.70000
    61.5924      155.20000
    61.6029      145.00000
    61.6135      129.70000
    61.6240      147.10001
    61.6345      155.20000
    61.6450      153.20000
    61.6556      181.80000
    61.6661      169.50000
    61.6766      193.00000
    61.6871      190.00000
    61.6976      192.00000
    61.7082      215.50000
    61.7187      265.50000
    61.7292      267.60001
    61.7397      260.39999
    61.7503      287.00000
    61.7608      302.30002
    61.7713      291.10001
    61.7818      329.89999
    61.7923      319.60001
    61.8029      360.50000
    61.8134      320.70001
    61.8239      336.00000
    61.8344      383.00000
    61.8450      329.89999
    61.8555      376.80002
    61.8660      356.39999
    61.8765      356.39999
    61.8871      378.89999
    61.8976      343.10001
    61.9081      347.20001
    61.9186      312.50000
    61.9291      352.30002
    61.9397      344.20001
    61.9502      347.20001
    61.9607      303.30002
    61.9712      329.89999
    61.9818      318.60001
    61.9923      332.89999
    62.0028      316.60001
    62.0133      287.00000
    62.0238      320.70001
    62.0344      310.50000
    62.0449      280.80002
    62.0554      300.20001
    62.0659      289.00000
    62.0765      283.89999
    62.0870      236.90001
    62.0975      280.80002
    62.1080      242.00000
    62.1185      294.10001
    62.1291      289.00000
    62.1396      293.10001
    62.1501      267.60001
    62.1606      255.30000
    62.1712      278.80002
    62.1817      285.89999
    62.1922      223.70000
    62.2027      217.50000
    62.2133      223.70000
    62.2238      227.70000
    62.2343      199.10001
    62.2448      161.40001
    62.2553      176.70000
    62.2659      171.60001
    62.2764      200.20001
    62.2869      143.00000
    62.2974      136.80000
    62.3080      129.70000
    62.3185      103.10000
    62.3290      128.70000
    62.3395      105.20000
    62.3500      102.10000
    62.3606      103.10000
    62.3711       99.10000
    62.3816       86.80000
    62.3921       96.00000
    62.4027       71.50000
    62.4132       71.50000
    62.4237       73.50000
    62.4342       61.30000
    62.4448       69.40000
    62.4553       60.30000
    62.4658       50.00000
    62.4763       60.30000
    62.4868       69.40000
    62.4974       64.30000
    62.5079       56.20000
    62.5184       44.90000
    62.5289       36.80000
    62.5395       47.00000
    62.5500       50.00000
    62.5605       52.10000
    62.5710       41.90000
    62.5815       48.00000
    62.5921       41.90000
    62.6026       32.70000
    62.6131       32.70000
    62.6236       33.70000
    62.6342       34.70000
    62.6447       31.70000
    62.6552       30.60000
    62.6657       43.90000
    62.6762       26.60000
    62.6868       30.60000
    62.6973       28.60000
    62.7078       29.60000
    62.7183       25.50000
    62.7289       37.80000
    62.7394       25.50000
    62.7499       26.60000
    62.7604       22.50000
    62.7710       21.40000
    62.7815       24.50000
    62.7920       26.60000
    62.8025       25.50000
    62.8130       24.50000
    62.8236       25.50000
    62.8341       37.80000
    62.8446       33.70000
    62.8551       32.70000
    62.8657       15.30000
    62.8762       27.60000
    62.8867       17.40000
    62.8972       18.40000
    62.9077       24.50000
    62.9183       32.70000
    62.9288       17.40000
    62.9393       16.30000
    62.9498       20.40000
    62.9604       22.50000
    62.9709       25.50000
    62.9814       37.80000
    62.9919       24.50000
    63.0025       28.60000
    63.0130       20.40000
    63.0235       31.70000
    63.0340       19.40000
    63.0445       17.40000
    63.0551       14.30000
    63.0656       35.70000
    63.0761       19.40000
    63.0866       26.60000
    63.0972       19.40000
    63.1077       27.60000
    63.1182       18.40000
    63.1287       20.40000
    63.1392       30.60000
    63.1498       21.40000
    63.1603       21.40000
    63.1708       21.40000
    63.1813       16.30000
    63.1919       20.40000
    63.2024       11.20000
    63.2129       21.40000
    63.2234       18.40000
    63.2339       12.30000
    63.2445       23.50000
    63.2550       22.50000
    63.2655       12.30000
    63.2760       18.40000
    63.2866       18.40000
    63.2971       18.40000
    63.3076       20.40000
    63.3181       17.40000
    63.3287       20.40000
    63.3392       25.50000
    63.3497       18.40000
    63.3602       19.40000
    63.3707       23.50000
    63.3813       20.40000
    63.3918       11.20000
    63.4023       16.30000
    63.4128       26.60000
    63.4234       18.40000
    63.4339       22.50000
    63.4444       15.30000
    63.4549       25.50000
    63.4654       24.50000
    63.4760       15.30000
    63.4865       17.40000
    63.4970       29.60000
    63.5075       17.40000
    63.5181       29.60000
    63.5286       24.50000
    63.5391       20.40000
    63.5496       25.50000
    63.5601       26.60000
    63.5707       16.30000
    63.5812       26.60000
    63.5917       18.40000
    63.6022       16.30000
    63.6128       28.60000
    63.6233       27.60000
    63.6338       30.60000
    63.6443       22.50000
    63.6549       21.40000
    63.6654       21.40000
    63.6759       31.70000
    63.6864       23.50000
    63.6969       28.60000
    63.7075       20.40000
    63.7180       30.60000
    63.7285       20.40000
    63.7390       22.50000
    63.7496       30.60000
    63.7601       23.50000
    63.7706       18.40000
    63.7811       23.50000
    63.7916       32.70000
    63.8022       24.50000
    63.8127       25.50000
    63.8232       25.50000
    63.8337       30.60000
    63.8443       27.60000
    63.8548       39.80000
    63.8653       30.60000
    63.8758       31.70000
    63.8864       35.70000
    63.8969       36.80000
    63.9074       31.70000
    63.9179       40.80000
    63.9284       53.10000
    63.9390       52.10000
    63.9495       43.90000
    63.9600       47.00000
    63.9705       50.00000
    63.9811       58.20000
    63.9916       53.10000
    64.0021       52.10000
    64.0126       58.20000
    64.0231       57.20000
    64.0337       56.20000
    64.0442       62.30000
    64.0547       54.10000
    64.0652       47.00000
    64.0758       64.30000
    64.0863       60.30000
    64.0968       57.20000
    64.1073       50.00000
    64.1178       49.00000
    64.1284       52.10000
    64.1389       42.90000
    64.1494       46.00000
    64.1599       40.80000
    64.1705       35.70000
    64.1810       34.70000
    64.1915       35.70000
    64.2020       29.60000
    64.2126       37.80000
    64.2231       32.70000
    64.2336       38.80000
    64.2441       33.70000
    64.2546       28.60000
    64.2652       28.60000
    64.2757       30.60000
    64.2862       27.60000
    64.2967       34.70000
    64.3073       24.50000
    64.3178       20.40000
    64.3283       27.60000
    64.3388       28.60000
    64.3493       22.50000
    64.3599       22.50000
    64.3704       17.40000
    64.3809       33.70000
    64.3914       17.40000
    64.4020       28.60000
    64.4125       17.40000
    64.4230       24.50000
    64.4335       21.40000
    64.4440       25.50000
    64.4546       24.50000
    64.4651       18.40000
    64.4756       21.40000
    64.4861       20.40000
    64.4967       16.30000
    64.5072       25.50000
    64.5177       26.60000
    64.5282       24.50000
    64.5388       20.40000
    64.5493       21.40000
    64.5598       23.50000
    64.5703       31.70000
    64.5808       28.60000
    64.5914       28.60000
    64.6019       25.50000
    64.6124       22.50000
    64.6229       28.60000
    64.6335       33.70000
    64.6440       26.60000
    64.6545       29.60000
    64.6650       22.50000
    64.6755       33.70000
    64.6861       32.70000
    64.6966       25.50000
    64.7071       29.60000
    64.7176       20.40000
    64.7282       31.70000
    64.7387       16.30000
    64.7492       28.60000
    64.7597       24.50000
    64.7703       32.70000
    64.7808       21.40000
    64.7913       22.50000
    64.8018       21.40000
    64.8123       30.60000
    64.8229       26.60000
    64.8334       15.30000
    64.8439       36.80000
    64.8544       18.40000
    64.8650       19.40000
    64.8755       20.40000
    64.8860       26.60000
    64.8965       21.40000
    64.9070       29.60000
    64.9176       19.40000
    64.9281       26.60000
    64.9386       18.40000
    64.9491       15.30000
    64.9597       16.30000
    64.9702       18.40000
    64.9807       21.40000
    64.9912       25.50000
    65.0017       21.40000
    65.0123        9.20000
    65.0228       23.50000
    65.0333       21.40000
    65.0438       20.40000
    65.0544       13.30000
    65.0649       22.50000
    65.0754       21.40000
    65.0859       24.50000
    65.0965       18.40000
    65.1070       18.40000
    65.1175       14.30000
    65.1280       23.50000
    65.1385       17.40000
    65.1491       19.40000
    65.1596       26.60000
    65.1701       13.30000
    65.1806       26.60000
    65.1912       20.40000
    65.2017       26.60000
    65.2122       21.40000
    65.2227       16.30000
    65.2332       18.40000
    65.2438       20.40000
    65.2543       22.50000
    65.2648       28.60000
    65.2753       18.40000
    65.2859       18.40000
    65.2964       21.40000
    65.3069       26.60000
    65.3174       13.30000
    65.3279       15.30000
    65.3385       25.50000
    65.3490       23.50000
    65.3595       25.50000
    65.3700       19.40000
    65.3806       30.60000
    65.3911       24.50000
    65.4016       32.70000
    65.4121       20.40000
    65.4227       25.50000
    65.4332       37.80000
    65.4437       31.70000
    65.4542       19.40000
    65.4647       25.50000
    65.4753       25.50000
    65.4858       28.60000
    65.4963       30.60000
    65.5068       19.40000
    65.5174       38.80000
    65.5279       21.40000
    65.5384       20.40000
    65.5489       26.60000
    65.5594       31.70000
    65.5700       23.50000
    65.5805       40.80000
    65.5910       22.50000
    65.6015       29.60000
    65.6121       14.30000
    65.6226       19.40000
    65.6331       30.60000
    65.6436       32.70000
    65.6542       34.70000
    65.6647       29.60000
    65.6752       30.60000
    65.6857       32.70000
    65.6962       24.50000
    65.7068       34.70000
    65.7173       40.80000
    65.7278       26.60000
    65.7383       19.40000
    65.7489       33.70000
    65.7594       30.60000
    65.7699       36.80000
    65.7804       34.70000
    65.7909       42.90000
    65.8015       39.80000
    65.8120       44.90000
    65.8225       52.10000
    65.8330       37.80000
    65.8436       26.60000
    65.8541       37.80000
    65.8646       57.20000
    65.8751       46.00000
    65.8856       36.80000
    65.8962       48.00000
    65.9067       33.70000
    65.9172       46.00000
    65.9277       52.10000
    65.9383       60.30000
    65.9488       50.00000
    65.9593       58.20000
    65.9698       47.00000
    65.9804       56.20000
    65.9909       61.30000
    66.0014       53.10000
    66.0119       48.00000
    66.0224       51.10000
    66.0330       58.20000
    66.0435       47.00000
    66.0540       47.00000
    66.0645       68.40000
    66.0751       52.10000
    66.0856       72.50000
    66.0961       57.20000
    66.1066       63.30000
    66.1171       55.10000
    66.1277       55.10000
    66.1382       48.00000
    66.1487       56.20000
    66.1592       65.40000
    66.1698       60.30000
    66.1803       48.00000
    66.1908       51.10000
    66.2013       72.50000
    66.2119       61.30000
    66.2224       78.60000
    66.2329       80.70000
    66.2434       71.50000
    66.2539       82.70000
    66.2645       71.50000
    66.2750       96.00000
    66.2855       95.00000
    66.2960       97.00000
    66.3066       86.80000
    66.3171      107.20000
    66.3276      112.30000
    66.3381       95.00000
    66.3486      100.10001
    66.3592       99.10000
    66.3697      107.20000
    66.3802       99.10000
    66.3907      109.30000
    66.4013       88.80000
    66.4118      109.30000
    66.4223       92.90000
    66.4328       90.90000
    66.4433       94.00000
    66.4539       89.90000
    66.4644       83.70000
    66.4749       86.80000
    66.4854       92.90000
    66.4960       57.20000
    66.5065       70.50000
    66.5170       62.30000
    66.5275       52.10000
    66.5381       52.10000
    66.5486       51.10000
    66.5591       56.20000
    66.5696       40.80000
    66.5801       57.20000
    66.5907       61.30000
    66.6012       47.00000
    66.6117       36.80000
    66.6222       44.90000
    66.6328       49.00000
    66.6433       30.60000
    66.6538       49.00000
    66.6643       35.70000
    66.6748       36.80000
    66.6854       24.50000
    66.6959       39.80000
    66.7064       31.70000
    66.7169       32.70000
    66.7275       31.70000
    66.7380       26.60000
    66.7485       40.80000
    66.7590       30.60000
    66.7695       29.60000
    66.7801       29.60000
    66.7906       29.60000
    66.8011       23.50000
    66.8116       29.60000
    66.8222       16.30000
    66.8327       34.70000
    66.8432       32.70000
    66.8537       19.40000
    66.8643       19.40000
    66.8748       24.50000
    66.8853       28.60000
    66.8958       31.70000
    66.9063       28.60000
    66.9169       29.60000
    66.9274       19.40000
    66.9379       19.40000
    66.9484       27.60000
    66.9590       18.40000
    66.9695       23.50000
    66.9800       17.40000
    66.9905       22.50000
    67.0010       19.40000
    67.0116       27.60000
    67.0221       24.50000
    67.0326       33.70000
    67.0431       13.30000
    67.0537       25.50000
    67.0642       30.60000
    67.0747       24.50000
    67.0852       22.50000
    67.0958       37.80000
    67.1063       33.70000
    67.1168       33.70000
    67.1273       21.40000
    67.1378       27.60000
    67.1484       33.70000
    67.1589       30.60000
    67.1694       42.90000
    67.1799       28.60000
    67.1905       40.80000
    67.2010       36.80000
    67.2115       37.80000
    67.2220       35.70000
    67.2325       47.00000
    67.2431       41.90000
    67.2536       56.20000
    67.2641       63.30000
    67.2746       47.00000
    67.2852       50.00000
    67.2957       56.20000
    67.3062       67.40000
    67.3167       54.10000
    67.3272       71.50000
    67.3378       70.50000
    67.3483       51.10000
    67.3588       57.20000
    67.3693       81.70000
    67.3799       73.50000
    67.3904       87.80000
    67.4009       84.80000
    67.4114       81.70000
    67.4220       70.50000
    67.4325       78.60000
    67.4430       76.60000
    67.4535       88.80000
    67.4640       78.60000
    67.4746      103.10000
    67.4851       82.70000
    67.4956       81.70000
    67.5061       98.00000
    67.5167       84.80000
    67.5272      106.20000
    67.5377      107.20000
    67.5482       82.70000
    67.5587       80.70000
    67.5693       78.60000
    67.5798       71.50000
    67.5903       60.30000
    67.6008       72.50000
    67.6114       66.40000
    67.6219       73.50000
    67.6324       65.40000
    67.6429       55.10000
    67.6534       76.60000
    67.6640       63.30000
    67.6745       49.00000
    67.6850       56.20000
    67.6955       58.20000
    67.7061       42.90000
    67.7166       47.00000
    67.7271       33.70000
    67.7376       52.10000
    67.7482       31.70000
    67.7587       37.80000
    67.7692       34.70000
    67.7797       29.60000
    67.7902       29.60000
    67.8008       33.70000
    67.8113       46.00000
    67.8218       38.80000
    67.8323       31.70000
    67.8429       31.70000
    67.8534       38.80000
    67.8639       34.70000
    67.8744       39.80000
    67.8849       38.80000
    67.8955       38.80000
    67.9060       35.70000
    67.9165       31.70000
    67.9270       36.80000
    67.9376       30.60000
    67.9481       33.70000
    67.9586       29.60000
    67.9691       40.80000
    67.9797       41.90000
    67.9902       38.80000
    68.0007       26.60000
    68.0112       40.80000
    68.0217       37.80000
    68.0323       42.90000
    68.0428       42.90000
    68.0533       42.90000
    68.0638       33.70000
    68.0744       33.70000
    68.0849       39.80000
    68.0954       32.70000
    68.1059       51.10000
    68.1164       38.80000
    68.1270       35.70000
    68.1375       40.80000
    68.1480       34.70000
    68.1585       49.00000
    68.1691       38.80000
    68.1796       33.70000
    68.1901       51.10000
    68.2006       44.90000
    68.2111       34.70000
    68.2217       48.00000
    68.2322       42.90000
    68.2427       52.10000
    68.2532       52.10000
    68.2638       41.90000
    68.2743       46.00000
    68.2848       40.80000
    68.2953       48.00000
    68.3059       38.80000
    68.3164       49.00000
    68.3269       55.10000
    68.3374       49.00000
    68.3479       41.90000
    68.3585       38.80000
    68.3690       27.60000
    68.3795       40.80000
    68.3900       40.80000
    68.4006       24.50000
    68.4111       35.70000
    68.4216       43.90000
    68.4321       35.70000
    68.4426       40.80000
    68.4532       33.70000
    68.4637       28.60000
    68.4742       44.90000
    68.4847       28.60000
    68.4953       22.50000
    68.5058       29.60000
    68.5163       35.70000
    68.5268       33.70000
    68.5373       32.70000
    68.5479       21.40000
    68.5584       20.40000
    68.5689       26.60000
    68.5794       24.50000
    68.5900       32.70000
    68.6005       19.40000
    68.6110       23.50000
    68.6215       24.50000
    68.6321       19.40000
    68.6426       23.50000
    68.6531       29.60000
    68.6636       27.60000
    68.6741       17.40000
    68.6847       17.40000
    68.6952       32.70000
    68.7057       23.50000
    68.7162       18.40000
    68.7268       22.50000
    68.7373       20.40000
    68.7478       18.40000
    68.7583       22.50000
    68.7688       14.30000
    68.7794       19.40000
    68.7899       25.50000
    68.8004       19.40000
    68.8109       20.40000
    68.8215       19.40000
    68.8320       16.30000
    68.8425       13.30000
    68.8530       19.40000
    68.8636       23.50000
    68.8741       14.30000
    68.8846       24.50000
    68.8951       15.30000
    68.9056       20.40000
    68.9162       10.20000
    68.9267       19.40000
    68.9372       21.40000
    68.9477       19.40000
    68.9583       15.30000
    68.9688       16.30000
    68.9793       27.60000
    68.9898       20.40000
    69.0003       16.30000
    69.0109       16.30000
    69.0214       31.70000
    69.0319       19.40000
    69.0424       19.40000
    69.0530       29.60000
    69.0635       17.40000
    69.0740       30.60000
    69.0845       27.60000
    69.0950       26.60000
    69.1056       24.50000
    69.1161       26.60000
    69.1266       25.50000
    69.1371       22.50000
    69.1477       21.40000
    69.1582       20.40000
    69.1687       25.50000
    69.1792       26.60000
    69.1898       32.70000
    69.2003       30.60000
    69.2108       29.60000
    69.2213       31.70000
    69.2318       28.60000
    69.2424       32.70000
    69.2529       30.60000
    69.2634       29.60000
    69.2739       29.60000
    69.2845       38.80000
    69.2950       38.80000
    69.3055       42.90000
    69.3160       34.70000
    69.3265       37.80000
    69.3371       39.80000
    69.3476       40.80000
    69.3581       46.00000
    69.3686       59.20000
    69.3792       46.00000
    69.3897       41.90000
    69.4002       52.10000
    69.4107       59.20000
    69.4212       46.00000
    69.4318       53.10000
    69.4423       61.30000
    69.4528       56.20000
    69.4633       52.10000
    69.4739       70.50000
    69.4844       57.20000
    69.4949       59.20000
    69.5054       48.00000
    69.5160       50.00000
    69.5265       53.10000
    69.5370       51.10000
    69.5475       51.10000
    69.5580       50.00000
    69.5686       42.90000
    69.5791       56.20000
    69.5896       50.00000
    69.6001       53.10000
    69.6107       52.10000
    69.6212       44.90000
    69.6317       36.80000
    69.6422       33.70000
    69.6527       24.50000
    69.6633       26.60000
    69.6738       38.80000
    69.6843       44.90000
    69.6948       25.50000
    69.7054       38.80000
    69.7159       25.50000
    69.7264       31.70000
    69.7369       30.60000
    69.7475       30.60000
    69.7580       30.60000
    69.7685       23.50000
    69.7790       36.80000
    69.7895       38.80000
    69.8001       35.70000
    69.8106       31.70000
    69.8211       46.00000
    69.8316       29.60000
    69.8422       32.70000
    69.8527       32.70000
    69.8632       42.90000
    69.8737       39.80000
    69.8842       33.70000
    69.8948       47.00000
    69.9053       43.90000
    69.9158       39.80000
    69.9263       50.00000
    69.9369       50.00000
    69.9474       52.10000
    69.9579       53.10000
    69.9684       54.10000
    69.9789       65.40000
    69.9895       62.30000
    70.0000       86.80000
    70.0105       75.60000
    70.0210       95.00000
    70.0316       68.40000
    70.0421       95.00000
    70.0526       87.80000
    70.0631       86.80000
    70.0737      102.10000
    70.0842      110.30000
    70.0947      106.20000
    70.1052      140.90001
    70.1157      107.20000
    70.1263      122.50000
    70.1368      154.20000
    70.1473      140.90001
    70.1578      140.90001
    70.1684      140.90001
    70.1789      162.40001
    70.1894      146.00000
    70.1999      143.00000
    70.2104      156.30000
    70.2210      144.00000
    70.2315      126.60000
    70.2420      152.20000
    70.2525      124.60000
    70.2631      130.70000
    70.2736      117.40000
    70.2841      121.50000
    70.2946      120.50000
    70.3052      104.20000
    70.3157       98.00000
    70.3262      114.40000
    70.3367      110.30000
    70.3472      107.20000
    70.3578       81.70000
    70.3683       95.00000
    70.3788       84.80000
    70.3893       77.60000
    70.3999       63.30000
    70.4104       52.10000
    70.4209       71.50000
    70.4314       65.40000
    70.4419       68.40000
    70.4525       50.00000
    70.4630       52.10000
    70.4735       59.20000
    70.4840       44.90000
    70.4946       41.90000
    70.5051       34.70000
    70.5156       55.10000
    70.5261       46.00000
    70.5366       42.90000
    70.5472       44.90000
    70.5577       35.70000
    70.5682       31.70000
    70.5787       39.80000
    70.5893       31.70000
    70.5998       29.60000
    70.6103       22.50000
    70.6208       25.50000
    70.6314       27.60000
    70.6419       38.80000
    70.6524       35.70000
    70.6629       32.70000
    70.6734       27.60000
    70.6840       31.70000
    70.6945       27.60000
    70.7050       30.60000
    70.7155       29.60000
    70.7261       22.50000
    70.7366       24.50000
    70.7471       25.50000
    70.7576       22.50000
    70.7681       26.60000
    70.7787       21.40000
    70.7892       24.50000
    70.7997       22.50000
    70.8102       21.40000
    70.8208       19.40000
    70.8313       24.50000
    70.8418       25.50000
    70.8523       31.70000
    70.8628       18.40000
    70.8734       22.50000
    70.8839       24.50000
    70.8944       28.60000
    70.9049       22.50000
    70.9155       24.50000
    70.9260       16.30000
    70.9365       22.50000
    70.9470       27.60000
    70.9576       37.80000
    70.9681       21.40000
    70.9786       26.60000
    70.9891       29.60000
    70.9996       28.60000
    71.0102       20.40000
    71.0207       23.50000
    71.0312       22.50000
    71.0417       18.40000
    71.0523       26.60000
    71.0628       24.50000
    71.0733       24.50000
    71.0838       20.40000
    71.0943       23.50000
    71.1049       28.60000
    71.1154       21.40000
    71.1259       28.60000
    71.1364       19.40000
    71.1470       26.60000
    71.1575       32.70000
    71.1680       23.50000
    71.1785       28.60000
    71.1891       33.70000
    71.1996       31.70000
    71.2101       35.70000
    71.2206       41.90000
    71.2311       27.60000
    71.2417       30.60000
    71.2522       27.60000
    71.2627       31.70000
    71.2732       26.60000
    71.2838       46.00000
    71.2943       38.80000
    71.3048       37.80000
    71.3153       38.80000
    71.3258       37.80000
    71.3364       50.00000
    71.3469       40.80000
    71.3574       49.00000
    71.3679       41.90000
    71.3785       46.00000
    71.3890       49.00000
    71.3995       58.20000
    71.4100       55.10000
    71.4205       50.00000
    71.4311       54.10000
    71.4416       58.20000
    71.4521       58.20000
    71.4626       54.10000
    71.4732       60.30000
    71.4837       52.10000
    71.4942       44.90000
    71.5047       47.00000
    71.5153       36.80000
    71.5258       52.10000
    71.5363       49.00000
    71.5468       51.10000
    71.5573       50.00000
    71.5679       50.00000
    71.5784       60.30000
    71.5889       50.00000
    71.5994       44.90000
    71.6100       48.00000
    71.6205       42.90000
    71.6310       47.00000
    71.6415       24.50000
    71.6520       46.00000
    71.6626       48.00000
    71.6731       49.00000
    71.6836       41.90000
    71.6941       46.00000
    71.7047       44.90000
    71.7152       43.90000
    71.7257       38.80000
    71.7362       47.00000
    71.7467       48.00000
    71.7573       39.80000
    71.7678       35.70000
    71.7783       51.10000
    71.7888       40.80000
    71.7994       33.70000
    71.8099       40.80000
    71.8204       53.10000
    71.8309       48.00000
    71.8415       43.90000
    71.8520       53.10000
    71.8625       46.00000
    71.8730       58.20000
    71.8835       46.00000
    71.8941       50.00000
    71.9046       52.10000
    71.9151       63.30000
    71.9256       65.40000
    71.9362       57.20000
    71.9467       56.20000
    71.9572       69.40000
    71.9677       74.60000
    71.9782       75.60000
    71.9888       63.30000
    71.9993       49.00000
    72.0098       63.30000
    72.0203       60.30000
    72.0309       60.30000
    72.0414       71.50000
    72.0519       77.60000
    72.0624       66.40000
    72.0730       66.40000
    72.0835       64.30000
    72.0940       73.50000
    72.1045       75.60000
    72.1150       72.50000
    72.1256       96.00000
    72.1361       82.70000
    72.1466       91.90000
    72.1571       87.80000
    72.1677       75.60000
    72.1782      102.10000
    72.1887      100.10001
    72.1992      100.10001
    72.2097       95.00000
    72.2203       87.80000
    72.2308       88.80000
    72.2413      107.20000
    72.2518       96.00000
    72.2624      117.40000
    72.2729      109.30000
    72.2834      106.20000
    72.2939      129.70000
    72.3044      131.70000
    72.3150      129.70000
    72.3255      124.60000
    72.3360      126.60000
    72.3465      117.40000
    72.3571      137.90001
    72.3676      126.60000
    72.3781      125.60000
    72.3886      109.30000
    72.3992      142.00000
    72.4097      119.50000
    72.4202      132.80000
    72.4307      135.80000
    72.4412      119.50000
    72.4518      120.50000
    72.4623       94.00000
    72.4728      103.10000
    72.4833      106.20000
    72.4939       99.10000
    72.5044      112.30000
    72.5149       94.00000
    72.5254       77.60000
    72.5359       90.90000
    72.5465       77.60000
    72.5570       88.80000
    72.5675       72.50000
    72.5780       54.10000
    72.5886       68.40000
    72.5991       70.50000
    72.6096       66.40000
    72.6201       66.40000
    72.6306       51.10000
    72.6412       50.00000
    72.6517       46.00000
    72.6622       55.10000
    72.6727       52.10000
    72.6833       47.00000
    72.6938       40.80000
    72.7043       35.70000
    72.7148       44.90000
    72.7254       40.80000
    72.7359       40.80000
    72.7464       44.90000
    72.7569       34.70000
    72.7674       38.80000
    72.7780       43.90000
    72.7885       46.00000
    72.7990       33.70000
    72.8095       37.80000
    72.8201       24.50000
    72.8306       32.70000
    72.8411       26.60000
    72.8516       24.50000
    72.8621       33.70000
    72.8727       27.60000
    72.8832       24.50000
    72.8937       27.60000
    72.9042       35.70000
    72.9148       25.50000
    72.9253       12.30000
    72.9358       18.40000
    72.9463       29.60000
    72.9569       24.50000
    72.9674       24.50000
    72.9779       26.60000
    72.9884       33.70000
    72.9989       15.30000
    73.0095       25.50000
    73.0200       23.50000
    73.0305       36.80000
    73.0410       22.50000
    73.0516       31.70000
    73.0621       25.50000
    73.0726       25.50000
    73.0831       20.40000
    73.0936       25.50000
    73.1042       24.50000
    73.1147       20.40000
    73.1252       18.40000
    73.1357       22.50000
    73.1463       23.50000
    73.1568       24.50000
    73.1673       20.40000
    73.1778       30.60000
    73.1883       28.60000
    73.1989       30.60000
    73.2094       24.50000
    73.2199       25.50000
    73.2304       20.40000
    73.2410       29.60000
    73.2515       22.50000
    73.2620       21.40000
    73.2725       14.30000
    73.2831       29.60000
    73.2936       33.70000
    73.3041       23.50000
    73.3146       31.70000
    73.3251       30.60000
    73.3357       27.60000
    73.3462       22.50000
    73.3567       31.70000
    73.3672       44.90000
    73.3778       30.60000
    73.3883       34.70000
    73.3988       36.80000
    73.4093       27.60000
    73.4198       29.60000
    73.4304       32.70000
    73.4409       30.60000
    73.4514       27.60000
    73.4619       39.80000
    73.4725       44.90000
    73.4830       46.00000
    73.4935       42.90000
    73.5040       39.80000
    73.5146       51.10000
    73.5251       35.70000
    73.5356       55.10000
    73.5461       48.00000
    73.5566       44.90000
    73.5672       50.00000
    73.5777       25.50000
    73.5882       50.00000
    73.5987       53.10000
    73.6093       35.70000
    73.6198       50.00000
    73.6303       24.50000
    73.6408       41.90000
    73.6513       44.90000
    73.6619       48.00000
    73.6724       28.60000
    73.6829       29.60000
    73.6934       28.60000
    73.7040       37.80000
    73.7145       24.50000
    73.7250       28.60000
    73.7355       36.80000
    73.7460       28.60000
    73.7566       32.70000
    73.7671       34.70000
    73.7776       32.70000
    73.7881       18.40000
    73.7987       21.40000
    73.8092       23.50000
    73.8197       20.40000
    73.8302       30.60000
    73.8408       21.40000
    73.8513       25.50000
    73.8618       26.60000
    73.8723       22.50000
    73.8828       21.40000
    73.8934       30.60000
    73.9039       32.70000
    73.9144       23.50000
    73.9249       28.60000
    73.9355       29.60000
    73.9460       32.70000
    73.9565       24.50000
    73.9670       27.60000
    73.9775       19.40000
    73.9881       27.60000
    73.9986       37.80000
    74.0091       28.60000
    74.0196       25.50000
    74.0302       30.60000
    74.0407       28.60000
    74.0512       29.60000
    74.0617       42.90000
    74.0722       31.70000
    74.0828       18.40000
    74.0933       26.60000
    74.1038       30.60000
    74.1143       52.10000
    74.1249       38.80000
    74.1354       33.70000
    74.1459       34.70000
    74.1564       24.50000
    74.1670       33.70000
    74.1775       32.70000
    74.1880       41.90000
    74.1985       34.70000
    74.2090       31.70000
    74.2196       41.90000
    74.2301       49.00000
    74.2406       43.90000
    74.2511       49.00000
    74.2617       66.40000
    74.2722       65.40000
    74.2827       80.70000
    74.2932       69.40000
    74.3037       67.40000
    74.3143       77.60000
    74.3248       86.80000
    74.3353       71.50000
    74.3458       86.80000
    74.3564       84.80000
    74.3669       78.60000
    74.3774       90.90000
    74.3879       96.00000
    74.3985       88.80000
    74.4090      103.10000
    74.4195       83.70000
    74.4300      108.30000
    74.4405      113.40000
    74.4511       92.90000
    74.4616       79.70000
    74.4721       92.90000
    74.4826      111.30000
    74.4932       83.70000
    74.5037       87.80000
    74.5142       99.10000
    74.5247       94.00000
    74.5352       85.80000
    74.5458       69.40000
    74.5563       50.00000
    74.5668       73.50000
    74.5773       68.40000
    74.5879       43.90000
    74.5984       47.00000
    74.6089       53.10000
    74.6194       50.00000
    74.6299       55.10000
    74.6405       41.90000
    74.6510       32.70000
    74.6615       46.00000
    74.6720       49.00000
    74.6826       33.70000
    74.6931       39.80000
    74.7036       43.90000
    74.7141       30.60000
    74.7247       35.70000
    74.7352       25.50000
    74.7457       44.90000
    74.7562       34.70000
    74.7667       34.70000
    74.7773       36.80000
    74.7878       20.40000
    74.7983       24.50000
    74.8088       27.60000
    74.8194       25.50000
    74.8299       27.60000
    74.8404       30.60000
    74.8509       28.60000
    74.8614       30.60000
    74.8720       25.50000
    74.8825       23.50000
    74.8930       22.50000
    74.9035       32.70000
    74.9141       37.80000
    74.9246       35.70000
    74.9351       18.40000
    74.9456       25.50000
    74.9561       23.50000
    74.9667       24.50000
    74.9772       32.70000
    74.9877       27.60000
    74.9982       29.60000
    75.0088       29.60000
    75.0193       30.60000
    75.0298       26.60000
    75.0403       33.70000
    75.0509       23.50000
    75.0614       31.70000
    75.0719       30.60000
    75.0824       33.70000
    75.0929       28.60000
    75.1035       35.70000
    75.1140       28.60000
    75.1245       37.80000
    75.1350       43.90000
    75.1456       30.60000
    75.1561       40.80000
    75.1666       40.80000
    75.1771       25.50000
    75.1876       32.70000
    75.1982       32.70000
    75.2087       29.60000
    75.2192       47.00000
    75.2297       37.80000
    75.2403       36.80000
    75.2508       34.70000
    75.2613       27.60000
    75.2718       33.70000
    75.2824       20.40000
    75.2929       25.50000
    75.3034       38.80000
    75.3139       28.60000
    75.3244       28.60000
    75.3350       25.50000
    75.3455       32.70000
    75.3560       31.70000
    75.3665       36.80000
    75.3771       33.70000
    75.3876       33.70000
    75.3981       34.70000
    75.4086       27.60000
    75.4191       31.70000
    75.4297       25.50000
    75.4402       25.50000
    75.4507       31.70000
    75.4612       26.60000
    75.4718       32.70000
    75.4823       31.70000
    75.4928       35.70000
    75.5033       39.80000
    75.5138       35.70000
    75.5244       27.60000
    75.5349       24.50000
    75.5454       46.00000
    75.5559       28.60000
    75.5665       41.90000
    75.5770       38.80000
    75.5875       37.80000
    75.5980       42.90000
    75.6086       33.70000
    75.6191       39.80000
    75.6296       29.60000
    75.6401       47.00000
    75.6506       44.90000
    75.6612       40.80000
    75.6717       32.70000
    75.6822       37.80000
    75.6927       27.60000
    75.7033       37.80000
    75.7138       47.00000
    75.7243       37.80000
    75.7348       48.00000
    75.7453       40.80000
    75.7559       37.80000
    75.7664       41.90000
    75.7769       46.00000
    75.7874       38.80000
    75.7980       37.80000
    75.8085       44.90000
    75.8190       32.70000
    75.8295       29.60000
    75.8400       32.70000
    75.8506       39.80000
    75.8611       34.70000
    75.8716       41.90000
    75.8821       29.60000
    75.8927       28.60000
    75.9032       30.60000
    75.9137       31.70000
    75.9242       40.80000
    75.9348       42.90000
    75.9453       38.80000
    75.9558       34.70000
    75.9663       27.60000
    75.9768       22.50000
    75.9874       31.70000
    75.9979       32.70000
    76.0084       33.70000
    76.0189       32.70000
    76.0295       39.80000
    76.0400       32.70000
    76.0505       35.70000
    76.0610       27.60000
    76.0715       33.70000
    76.0821       31.70000
    76.0926       34.70000
    76.1031       44.90000
    76.1136       31.70000
    76.1242       35.70000
    76.1347       39.80000
    76.1452       42.90000
    76.1557       36.80000
    76.1663       43.90000
    76.1768       33.70000
    76.1873       36.80000
    76.1978       34.70000
    76.2083       31.70000
    76.2189       30.60000
    76.2294       30.60000
    76.2399       37.80000
    76.2504       31.70000
    76.2610       30.60000
    76.2715       28.60000
    76.2820       26.60000
    76.2925       32.70000
    76.3030       28.60000
    76.3136       19.40000
    76.3241       30.60000
    76.3346       31.70000
    76.3451       36.80000
    76.3557       35.70000
    76.3662       21.40000
    76.3767       27.60000
    76.3872       21.40000
    76.3977       21.40000
    76.4083       25.50000
    76.4188       22.50000
    76.4293       25.50000
    76.4398       20.40000
    76.4504       13.30000
    76.4609       16.30000
    76.4714       21.40000
    76.4819       19.40000
    76.4925       15.30000
    76.5030       21.40000
    76.5135       23.50000
    76.5240       23.50000
    76.5345       16.30000
    76.5451       17.40000
    76.5556       26.60000
    76.5661       17.40000
    76.5766       20.40000
    76.5872       17.40000
    76.5977       15.30000
    76.6082       11.20000
    76.6187       19.40000
    76.6292       13.30000
    76.6398       12.30000
    76.6503       18.40000
    76.6608       16.30000
    76.6713       10.20000
    76.6819       26.60000
    76.6924       11.20000
    76.7029       11.20000
    76.7134       14.30000
    76.7240       15.30000
    76.7345       21.40000
    76.7450        8.20000
    76.7555       14.30000
    76.7660       17.40000
    76.7766       12.30000
    76.7871       21.40000
    76.7976       14.30000
    76.8081       14.30000
    76.8187       14.30000
    76.8292       14.30000
    76.8397       25.50000
    76.8502       16.30000
    76.8607       12.30000
    76.8713       21.40000
    76.8818       17.40000
    76.8923       17.40000
    76.9028       20.40000
    76.9134       16.30000
    76.9239       18.40000
    76.9344       13.30000
    76.9449       19.40000
    76.9554       23.50000
    76.9660       25.50000
    76.9765       18.40000
    76.9870       20.40000
    76.9975       18.40000
    77.0081       15.30000
    77.0186       22.50000
    77.0291       23.50000
    77.0396       15.30000
    77.0502       18.40000
    77.0607       16.30000
    77.0712       24.50000
    77.0817       27.60000
    77.0922       14.30000
    77.1028       10.20000
    77.1133       19.40000
    77.1238       14.30000
    77.1343       19.40000
    77.1449       30.60000
    77.1554       25.50000
    77.1659       18.40000
    77.1764       17.40000
    77.1869       28.60000
    77.1975       22.50000
    77.2080       18.40000
    77.2185       18.40000
    77.2290       20.40000
    77.2396       29.60000
    77.2501       20.40000
    77.2606       24.50000
    77.2711       24.50000
    77.2816       30.60000
    77.2922       26.60000
    77.3027       29.60000
    77.3132       27.60000
    77.3237       21.40000
    77.3343       25.50000
    77.3448       21.40000
    77.3553       23.50000
    77.3658       25.50000
    77.3764       38.80000
    77.3869       32.70000
    77.3974       27.60000
    77.4079       30.60000
    77.4184       31.70000
    77.4290       24.50000
    77.4395       41.90000
    77.4500       27.60000
    77.4605       27.60000
    77.4711       38.80000
    77.4816       28.60000
    77.4921       27.60000
    77.5026       31.70000
    77.5131       35.70000
    77.5237       39.80000
    77.5342       37.80000
    77.5447       35.70000
    77.5552       44.90000
    77.5658       46.00000
    77.5763       41.90000
    77.5868       51.10000
    77.5973       36.80000
    77.6079       44.90000
    77.6184       37.80000
    77.6289       42.90000
    77.6394       46.00000
    77.6499       54.10000
    77.6605       63.30000
    77.6710       58.20000
    77.6815       51.10000
    77.6920       58.20000
    77.7026       59.20000
    77.7131       55.10000
    77.7236       59.20000
    77.7341       47.00000
    77.7446       65.40000
    77.7552       67.40000
    77.7657       50.00000
    77.7762       72.50000
    77.7867       73.50000
    77.7973       75.60000
    77.8078       72.50000
    77.8183       69.40000
    77.8288       65.40000
    77.8393       88.80000
    77.8499       64.30000
    77.8604       62.30000
    77.8709       74.60000
    77.8814       73.50000
    77.8920       70.50000
    77.9025       65.40000
    77.9130       77.60000
    77.9235       66.40000
    77.9341       82.70000
    77.9446       77.60000
    77.9551       64.30000
    77.9656       83.70000
    77.9761       73.50000
    77.9867       70.50000
    77.9972       63.30000
    78.0077       71.50000
    78.0182       61.30000
    78.0288       77.60000
    78.0393       60.30000
    78.0498       60.30000
    78.0603       50.00000
    78.0708       61.30000
    78.0814       57.20000
    78.0919       55.10000
    78.1024       58.20000
    78.1129       54.10000
    78.1235       56.20000
    78.1340       59.20000
    78.1445       53.10000
    78.1550       38.80000
    78.1655       48.00000
    78.1761       47.00000
    78.1866       56.20000
    78.1971       42.90000
    78.2076       30.60000
    78.2182       41.90000
    78.2287       31.70000
    78.2392       32.70000
    78.2497       22.50000
    78.2603       35.70000
    78.2708       25.50000
    78.2813       31.70000
    78.2918       41.90000
    78.3023       28.60000
    78.3129       28.60000
    78.3234       26.60000
    78.3339       33.70000
    78.3444       21.40000
    78.3550       32.70000
    78.3655       30.60000
    78.3760       34.70000
    78.3865       34.70000
    78.3970       29.60000
    78.4076       24.50000
    78.4181       15.30000
    78.4286       32.70000
    78.4391       26.60000
    78.4497       33.70000
    78.4602       21.40000
    78.4707       21.40000
    78.4812       24.50000
    78.4918       20.40000
    78.5023       19.40000
    78.5128       29.60000
    78.5233       28.60000
    78.5338       11.20000
    78.5444       17.40000
    78.5549       15.30000
    78.5654       26.60000
    78.5759       24.50000
    78.5865       16.30000
    78.5970       23.50000
    78.6075       22.50000
    78.6180       17.40000
    78.6285       27.60000
    78.6391       21.40000
    78.6496       17.40000
    78.6601       14.30000
    78.6706       13.30000
    78.6812       16.30000
    78.6917       14.30000
    78.7022       16.30000
    78.7127       18.40000
    78.7232       18.40000
    78.7338       22.50000
    78.7443       20.40000
    78.7548       21.40000
    78.7653       11.20000
    78.7759       16.30000
    78.7864       15.30000
    78.7969       18.40000
    78.8074       19.40000
    78.8180       14.30000
    78.8285       15.30000
    78.8390       19.40000
    78.8495       20.40000
    78.8600       18.40000
    78.8706       25.50000
    78.8811       12.30000
    78.8916        9.20000
    78.9021       18.40000
    78.9127       14.30000
    78.9232       18.40000
    78.9337       20.40000
    78.9442       16.30000
    78.9547       14.30000
    78.9653       14.30000
    78.9758       16.30000
    78.9863       16.30000
    78.9968       12.30000
    79.0074       17.40000
    79.0179       12.30000
    79.0284       10.20000
    79.0389        8.20000
    79.0494       19.40000
    79.0600       16.30000
    79.0705       16.30000
    79.0810       11.20000
    79.0915       10.20000
    79.1021       19.40000
    79.1126       16.30000
    79.1231       16.30000
    79.1336       18.40000
    79.1442       13.30000
    79.1547       13.30000
    79.1652       16.30000
    79.1757       18.40000
    79.1862       12.30000
    79.1968       13.30000
    79.2073       15.30000
    79.2178       13.30000
    79.2283       18.40000
    79.2389       15.30000
    79.2494       13.30000
    79.2599       18.40000
    79.2704       11.20000
    79.2809       12.30000
    79.2915       16.30000
    79.3020       16.30000
    79.3125       17.40000
    79.3230        7.10000
    79.3336        7.10000
    79.3441        9.20000
    79.3546       12.30000
    79.3651       18.40000
    79.3757        9.20000
    79.3862       15.30000
    79.3967       13.30000
    79.4072       11.20000
    79.4177       16.30000
    79.4283       14.30000
    79.4388       16.30000
    79.4493       15.30000
    79.4598       12.30000
    79.4704       19.40000
    79.4809       11.20000
    79.4914       19.40000
    79.5019       18.40000
    79.5124       10.20000
    79.5230       14.30000
    79.5335       18.40000
    79.5440       24.50000
    79.5545       16.30000
    79.5651       13.30000
    79.5756       16.30000
    79.5861       17.40000
    79.5966       14.30000
    79.6071       14.30000
    79.6177       16.30000
    79.6282       17.40000
    79.6387       25.50000
    79.6492       14.30000
    79.6598       18.40000
    79.6703       17.40000
    79.6808       15.30000
    79.6913       18.40000
    79.7019       14.30000
    79.7124       13.30000
    79.7229       13.30000
    79.7334       17.40000
    79.7439       24.50000
    79.7545       17.40000
    79.7650       20.40000
    79.7755       12.30000
    79.7860       18.40000
    79.7966       15.30000
    79.8071       16.30000
    79.8176       15.30000
    79.8281       18.40000
    79.8386       25.50000
    79.8492       24.50000
    79.8597       19.40000
    79.8702       18.40000
    79.8807       18.40000
    79.8913       20.40000
    79.9018       24.50000
    79.9123       19.40000
    79.9228       18.40000
    79.9333       24.50000
    79.9439       25.50000
    79.9544       20.40000
    79.9649       21.40000
    79.9754       18.40000
    79.9860       20.40000
    79.9965       19.40000
    80.0070       26.60000
