! Initial file:   O:\a) Research area\01 - Batteries & Supercaps\EES Research LINES\RL2018001 Advanced Cathodes\Results\Maha-Joseba\Automation_paper\XRD\LFP_05_180-15\MI-JO_LFP_221110_05.xy
! Initial format:   1
! WAVE (A):      1.54060     1.54060     1.00000
! REM : data have been multiplied by     1.0000
! X_data : 2 Theta (deg.)                                                                                                                                                                                                                                                  
! Y_data : Intensity (arb. units)                                                                                                                                                                                                                                          
!     X         Y
!--------------------------------------------------------------------------------
    10.0000       84.80000
    10.0105       89.90000
    10.0210       96.00000
    10.0316       89.90000
    10.0421      102.10001
    10.0526      101.10001
    10.0631      103.10000
    10.0737      107.20000
    10.0842      101.10001
    10.0947       87.80000
    10.1052       84.80000
    10.1157       98.00000
    10.1263       99.10000
    10.1368      107.20000
    10.1473       96.00000
    10.1578      110.30000
    10.1684       74.60000
    10.1789       97.00000
    10.1894      108.30000
    10.1999       95.00000
    10.2105       98.00000
    10.2210       84.80000
    10.2315       87.80000
    10.2420       77.60001
    10.2525       87.80000
    10.2631      104.20000
    10.2736       97.00000
    10.2841      106.20000
    10.2946      113.39999
    10.3052       75.60000
    10.3157      103.10000
    10.3262       78.60000
    10.3367       95.00000
    10.3472       85.80000
    10.3578       83.70000
    10.3683      103.10000
    10.3788      103.10000
    10.3893       95.00000
    10.3999       88.80000
    10.4104      104.20000
    10.4209       89.90000
    10.4314       97.00000
    10.4420       94.00000
    10.4525       96.00000
    10.4630       94.00000
    10.4735       87.80000
    10.4840       86.80000
    10.4946       90.90000
    10.5051       92.90000
    10.5156       99.10000
    10.5261       72.50000
    10.5367      102.10001
    10.5472       88.80000
    10.5577       90.90000
    10.5682       86.80000
    10.5787       76.60000
    10.5893       98.00000
    10.5998       72.50000
    10.6103       65.40000
    10.6208       81.70000
    10.6314       90.90000
    10.6419       78.60000
    10.6524       88.80000
    10.6629       75.60000
    10.6734       95.00000
    10.6840       97.00000
    10.6945       71.50000
    10.7050       95.00000
    10.7155       90.90000
    10.7261       88.80000
    10.7366       83.70000
    10.7471       91.90000
    10.7576       79.70000
    10.7682       90.90000
    10.7787       90.90000
    10.7892       92.90000
    10.7997       87.80000
    10.8102       74.60000
    10.8208       91.90000
    10.8313      100.10001
    10.8418      104.20000
    10.8523       81.70000
    10.8629       98.00000
    10.8734       64.30000
    10.8839       71.50000
    10.8944       90.90000
    10.9049       87.80000
    10.9155       88.80000
    10.9260       82.70000
    10.9365       97.00000
    10.9470      103.10000
    10.9576       92.90000
    10.9681       97.00000
    10.9786       86.80000
    10.9891       73.50000
    10.9996       87.80000
    11.0102       95.00000
    11.0207       85.80000
    11.0312      103.10000
    11.0417       71.50000
    11.0523       77.60001
    11.0628       77.60001
    11.0733       85.80000
    11.0838       65.40000
    11.0944       79.70000
    11.1049      102.10001
    11.1154       68.40000
    11.1259       82.70000
    11.1364       83.70000
    11.1470       80.70000
    11.1575       85.80000
    11.1680       69.40000
    11.1785       81.70000
    11.1891      100.10001
    11.1996       87.80000
    11.2101       74.60000
    11.2206       62.30000
    11.2311       66.39999
    11.2417       66.39999
    11.2522       92.90000
    11.2627       94.00000
    11.2732       79.70000
    11.2838       89.90000
    11.2943       80.70000
    11.3048       88.80000
    11.3153       83.70000
    11.3259       70.50000
    11.3364       85.80000
    11.3469       98.00000
    11.3574       76.60000
    11.3679       91.90000
    11.3785       94.00000
    11.3890       83.70000
    11.3995       77.60001
    11.4100       90.90000
    11.4206       63.30000
    11.4311       71.50000
    11.4416       77.60001
    11.4521       75.60000
    11.4626       75.60000
    11.4732       80.70000
    11.4837       81.70000
    11.4942       77.60001
    11.5047       75.60000
    11.5153       71.50000
    11.5258       89.90000
    11.5363       73.50000
    11.5468       88.80000
    11.5573       92.90000
    11.5679       78.60000
    11.5784       70.50000
    11.5889       79.70000
    11.5994       70.50000
    11.6100       74.60000
    11.6205       60.30000
    11.6310       73.50000
    11.6415       79.70000
    11.6521       65.40000
    11.6626       76.60000
    11.6731       72.50000
    11.6836       73.50000
    11.6941       89.90000
    11.7047       83.70000
    11.7152       84.80000
    11.7257       85.80000
    11.7362       77.60001
    11.7468       71.50000
    11.7573       70.50000
    11.7678       67.40000
    11.7783       86.80000
    11.7888       72.50000
    11.7994       71.50000
    11.8099       73.50000
    11.8204       84.80000
    11.8309       76.60000
    11.8415       70.50000
    11.8520       81.70000
    11.8625       80.70000
    11.8730       78.60000
    11.8835       74.60000
    11.8941       74.60000
    11.9046       81.70000
    11.9151       73.50000
    11.9256       85.80000
    11.9362       75.60000
    11.9467       90.90000
    11.9572       76.60000
    11.9677       80.70000
    11.9783       74.60000
    11.9888       71.50000
    11.9993       70.50000
    12.0098       71.50000
    12.0203       54.10000
    12.0309       69.40000
    12.0414       62.30000
    12.0519       78.60000
    12.0624       68.40000
    12.0730       80.70000
    12.0835       81.70000
    12.0940       62.30000
    12.1045       85.80000
    12.1150       70.50000
    12.1256       77.60001
    12.1361       76.60000
    12.1466       68.40000
    12.1571       74.60000
    12.1677       85.80000
    12.1782       83.70000
    12.1887       61.30000
    12.1992       64.30000
    12.2098       71.50000
    12.2203       71.50000
    12.2308       73.50000
    12.2413       77.60001
    12.2518       72.50000
    12.2624       79.70000
    12.2729       72.50000
    12.2834       76.60000
    12.2939       71.50000
    12.3045       71.50000
    12.3150       74.60000
    12.3255       77.60001
    12.3360       76.60000
    12.3465       60.30000
    12.3571       82.70000
    12.3676       77.60001
    12.3781       59.20000
    12.3886       63.30000
    12.3992       66.39999
    12.4097       63.30000
    12.4202       67.40000
    12.4307       62.30000
    12.4412       81.70000
    12.4518       76.60000
    12.4623       84.80000
    12.4728       63.30000
    12.4833       71.50000
    12.4939       63.30000
    12.5044       69.40000
    12.5149       75.60000
    12.5254       73.50000
    12.5360       70.50000
    12.5465       73.50000
    12.5570       79.70000
    12.5675       68.40000
    12.5780       77.60001
    12.5886       73.50000
    12.5991       73.50000
    12.6096       57.20000
    12.6201       59.20000
    12.6307       68.40000
    12.6412       70.50000
    12.6517       81.70000
    12.6622       79.70000
    12.6727       67.40000
    12.6833       80.70000
    12.6938       78.60000
    12.7043       57.20000
    12.7148       48.00000
    12.7254       69.40000
    12.7359       78.60000
    12.7464       72.50000
    12.7569       68.40000
    12.7674       62.30000
    12.7780       72.50000
    12.7885       70.50000
    12.7990       53.10000
    12.8095       59.20000
    12.8201       70.50000
    12.8306       64.30000
    12.8411       75.60000
    12.8516       73.50000
    12.8622       72.50000
    12.8727       60.30000
    12.8832       65.40000
    12.8937       68.40000
    12.9042       73.50000
    12.9148       74.60000
    12.9253       55.10000
    12.9358       68.40000
    12.9463       72.50000
    12.9569       66.39999
    12.9674       87.80000
    12.9779       67.40000
    12.9884       71.50000
    12.9989       68.40000
    13.0095       80.70000
    13.0200       74.60000
    13.0305       67.40000
    13.0410       77.60001
    13.0516       68.40000
    13.0621       72.50000
    13.0726       59.20000
    13.0831       78.60000
    13.0937       62.30000
    13.1042       83.70000
    13.1147       64.30000
    13.1252       64.30000
    13.1357       55.10000
    13.1463       58.20000
    13.1568       78.60000
    13.1673       62.30000
    13.1778       72.50000
    13.1884       69.40000
    13.1989       72.50000
    13.2094       64.30000
    13.2199       67.40000
    13.2304       71.50000
    13.2410       59.20000
    13.2515       69.40000
    13.2620       74.60000
    13.2725       75.60000
    13.2831       68.40000
    13.2936       67.40000
    13.3041       70.50000
    13.3146       65.40000
    13.3251       71.50000
    13.3357       56.20000
    13.3462       59.20000
    13.3567       77.60001
    13.3672       65.40000
    13.3778       59.20000
    13.3883       58.20000
    13.3988       75.60000
    13.4093       75.60000
    13.4199       69.40000
    13.4304       65.40000
    13.4409       66.39999
    13.4514       67.40000
    13.4619       64.30000
    13.4725       74.60000
    13.4830       73.50000
    13.4935       67.40000
    13.5040       60.30000
    13.5146       76.60000
    13.5251       69.40000
    13.5356       68.40000
    13.5461       83.70000
    13.5566       62.30000
    13.5672       55.10000
    13.5777       64.30000
    13.5882       55.10000
    13.5987       60.30000
    13.6093       72.50000
    13.6198       62.30000
    13.6303       63.30000
    13.6408       67.40000
    13.6514       59.20000
    13.6619       70.50000
    13.6724       47.00000
    13.6829       68.40000
    13.6934       62.30000
    13.7040       73.50000
    13.7145       61.30000
    13.7250       59.20000
    13.7355       67.40000
    13.7461       56.20000
    13.7566       59.20000
    13.7671       78.60000
    13.7776       72.50000
    13.7881       76.60000
    13.7987       53.10000
    13.8092       46.00000
    13.8197       64.30000
    13.8302       65.40000
    13.8408       53.10000
    13.8513       61.30000
    13.8618       52.10000
    13.8723       69.40000
    13.8828       69.40000
    13.8934       69.40000
    13.9039       72.50000
    13.9144       69.40000
    13.9249       71.50000
    13.9355       66.39999
    13.9460       54.10000
    13.9565       60.30000
    13.9670       64.30000
    13.9776       55.10000
    13.9881       63.30000
    13.9986       67.40000
    14.0091       53.10000
    14.0196       69.40000
    14.0302       69.40000
    14.0407       74.60000
    14.0512       58.20000
    14.0617       68.40000
    14.0723       67.40000
    14.0828       63.30000
    14.0933       61.30000
    14.1038       59.20000
    14.1143       65.40000
    14.1249       70.50000
    14.1354       50.00000
    14.1459       65.40000
    14.1564       90.90000
    14.1670       55.10000
    14.1775       60.30000
    14.1880       68.40000
    14.1985       66.39999
    14.2090       60.30000
    14.2196       59.20000
    14.2301       65.40000
    14.2406       70.50000
    14.2511       59.20000
    14.2617       53.10000
    14.2722       58.20000
    14.2827       65.40000
    14.2932       64.30000
    14.3038       61.30000
    14.3143       51.10000
    14.3248       50.00000
    14.3353       71.50000
    14.3458       50.00000
    14.3564       62.30000
    14.3669       52.10000
    14.3774       57.20000
    14.3879       57.20000
    14.3985       63.30000
    14.4090       66.39999
    14.4195       77.60001
    14.4300       68.40000
    14.4405       54.10000
    14.4511       54.10000
    14.4616       50.00000
    14.4721       66.39999
    14.4826       48.00000
    14.4932       67.40000
    14.5037       60.30000
    14.5142       55.10000
    14.5247       50.00000
    14.5353       61.30000
    14.5458       87.80000
    14.5563       62.30000
    14.5668       60.30000
    14.5773       47.00000
    14.5879       68.40000
    14.5984       57.20000
    14.6089       70.50000
    14.6194       58.20000
    14.6300       61.30000
    14.6405       56.20000
    14.6510       64.30000
    14.6615       61.30000
    14.6720       47.00000
    14.6826       63.30000
    14.6931       57.20000
    14.7036       46.00000
    14.7141       69.40000
    14.7247       62.30000
    14.7352       59.20000
    14.7457       59.20000
    14.7562       55.10000
    14.7667       65.40000
    14.7773       62.30000
    14.7878       64.30000
    14.7983       48.00000
    14.8088       55.10000
    14.8194       50.00000
    14.8299       61.30000
    14.8404       65.40000
    14.8509       49.00000
    14.8615       59.20000
    14.8720       55.10000
    14.8825       65.40000
    14.8930       47.00000
    14.9035       46.00000
    14.9141       47.00000
    14.9246       59.20000
    14.9351       58.20000
    14.9456       66.39999
    14.9562       48.00000
    14.9667       65.40000
    14.9772       56.20000
    14.9877       52.10000
    14.9982       51.10000
    15.0088       59.20000
    15.0193       50.00000
    15.0298       51.10000
    15.0403       65.40000
    15.0509       70.50000
    15.0614       55.10000
    15.0719       62.30000
    15.0824       65.40000
    15.0929       57.20000
    15.1035       68.40000
    15.1140       53.10000
    15.1245       63.30000
    15.1350       57.20000
    15.1456       54.10000
    15.1561       57.20000
    15.1666       55.10000
    15.1771       62.30000
    15.1877       50.00000
    15.1982       55.10000
    15.2087       62.30000
    15.2192       62.30000
    15.2297       55.10000
    15.2403       54.10000
    15.2508       51.10000
    15.2613       51.10000
    15.2718       42.90000
    15.2824       74.60000
    15.2929       40.80000
    15.3034       62.30000
    15.3139       71.50000
    15.3244       68.40000
    15.3350       49.00000
    15.3455       60.30000
    15.3560       69.40000
    15.3665       55.10000
    15.3771       58.20000
    15.3876       48.00000
    15.3981       68.40000
    15.4086       61.30000
    15.4192       51.10000
    15.4297       52.10000
    15.4402       62.30000
    15.4507       57.20000
    15.4612       59.20000
    15.4718       41.90000
    15.4823       63.30000
    15.4928       46.00000
    15.5033       64.30000
    15.5139       60.30000
    15.5244       54.10000
    15.5349       47.00000
    15.5454       61.30000
    15.5559       54.10000
    15.5665       51.10000
    15.5770       49.00000
    15.5875       48.00000
    15.5980       39.80000
    15.6086       49.00000
    15.6191       55.10000
    15.6296       52.10000
    15.6401       74.60000
    15.6506       61.30000
    15.6612       54.10000
    15.6717       52.10000
    15.6822       55.10000
    15.6927       56.20000
    15.7033       61.30000
    15.7138       52.10000
    15.7243       58.20000
    15.7348       68.40000
    15.7454       46.00000
    15.7559       44.90000
    15.7664       49.00000
    15.7769       68.40000
    15.7874       59.20000
    15.7980       62.30000
    15.8085       68.40000
    15.8190       54.10000
    15.8295       60.30000
    15.8401       61.30000
    15.8506       33.70000
    15.8611       52.10000
    15.8716       47.00000
    15.8821       67.40000
    15.8927       52.10000
    15.9032       62.30000
    15.9137       46.00000
    15.9242       53.10000
    15.9348       54.10000
    15.9453       44.90000
    15.9558       56.20000
    15.9663       69.40000
    15.9768       49.00000
    15.9874       52.10000
    15.9979       54.10000
    16.0084       44.90000
    16.0189       63.30000
    16.0295       34.70000
    16.0400       54.10000
    16.0505       50.00000
    16.0610       49.00000
    16.0716       51.10000
    16.0821       53.10000
    16.0926       65.40000
    16.1031       42.90000
    16.1136       47.00000
    16.1242       61.30000
    16.1347       50.00000
    16.1452       44.90000
    16.1557       46.00000
    16.1663       56.20000
    16.1768       65.40000
    16.1873       50.00000
    16.1978       52.10000
    16.2083       44.90000
    16.2189       42.90000
    16.2294       35.70000
    16.2399       61.30000
    16.2504       53.10000
    16.2610       59.20000
    16.2715       53.10000
    16.2820       57.20000
    16.2925       63.30000
    16.3031       62.30000
    16.3136       49.00000
    16.3241       54.10000
    16.3346       48.00000
    16.3451       54.10000
    16.3557       57.20000
    16.3662       71.50000
    16.3767       53.10000
    16.3872       44.90000
    16.3978       62.30000
    16.4083       36.80000
    16.4188       43.90000
    16.4293       57.20000
    16.4398       49.00000
    16.4504       52.10000
    16.4609       58.20000
    16.4714       60.30000
    16.4819       58.20000
    16.4925       47.00000
    16.5030       54.10000
    16.5135       57.20000
    16.5240       52.10000
    16.5345       50.00000
    16.5451       42.90000
    16.5556       43.90000
    16.5661       66.39999
    16.5766       56.20000
    16.5872       49.00000
    16.5977       57.20000
    16.6082       53.10000
    16.6187       62.30000
    16.6293       58.20000
    16.6398       67.40000
    16.6503       63.30000
    16.6608       60.30000
    16.6713       61.30000
    16.6819       46.00000
    16.6924       47.00000
    16.7029       50.00000
    16.7134       64.30000
    16.7240       63.30000
    16.7345       55.10000
    16.7450       63.30000
    16.7555       76.60000
    16.7660       57.20000
    16.7766       62.30000
    16.7871       61.30000
    16.7976       55.10000
    16.8081       66.39999
    16.8187       54.10000
    16.8292       44.90000
    16.8397       68.40000
    16.8502       55.10000
    16.8607       66.39999
    16.8713       64.30000
    16.8818       64.30000
    16.8923       79.70000
    16.9028       72.50000
    16.9134       67.40000
    16.9239       73.50000
    16.9344       81.70000
    16.9449       79.70000
    16.9555       84.80000
    16.9660       78.60000
    16.9765       86.80000
    16.9870      104.20000
    16.9975      107.20000
    17.0081      129.70001
    17.0186      135.80000
    17.0291      154.20001
    17.0396      161.39999
    17.0502      177.70000
    17.0607      185.89999
    17.0712      235.89999
    17.0817      298.20001
    17.0922      304.29999
    17.1028      397.30002
    17.1133      462.60001
    17.1238      492.19998
    17.1343      570.90002
    17.1449      684.20001
    17.1554      691.40002
    17.1659      786.39996
    17.1764      774.10004
    17.1870      830.30005
    17.1975      846.59998
    17.2080      752.70001
    17.2185      719.00000
    17.2290      654.59998
    17.2396      569.89996
    17.2501      502.50000
    17.2606      409.49997
    17.2711      361.50000
    17.2817      285.89999
    17.2922      261.39999
    17.3027      236.89999
    17.3132      182.79999
    17.3237      167.50000
    17.3343      163.39999
    17.3448      135.80000
    17.3553      113.39999
    17.3658      121.50000
    17.3764       89.90000
    17.3869      109.30000
    17.3974       90.90000
    17.4079       82.70000
    17.4184       80.70000
    17.4290       71.50000
    17.4395       90.90000
    17.4500       70.50000
    17.4605       52.10000
    17.4711       54.10000
    17.4816       87.80000
    17.4921       64.30000
    17.5026       55.10000
    17.5132       67.40000
    17.5237       56.20000
    17.5342       53.10000
    17.5447       63.30000
    17.5552       65.40000
    17.5658       54.10000
    17.5763       59.20000
    17.5868       50.00000
    17.5973       60.30000
    17.6079       43.90000
    17.6184       37.80000
    17.6289       48.00000
    17.6394       54.10000
    17.6499       53.10000
    17.6605       54.10000
    17.6710       55.10000
    17.6815       52.10000
    17.6920       51.10000
    17.7026       46.00000
    17.7131       53.10000
    17.7236       47.00000
    17.7341       55.10000
    17.7447       52.10000
    17.7552       58.20000
    17.7657       64.30000
    17.7762       55.10000
    17.7867       49.00000
    17.7973       59.20000
    17.8078       49.00000
    17.8183       55.10000
    17.8288       47.00000
    17.8394       47.00000
    17.8499       43.90000
    17.8604       49.00000
    17.8709       44.90000
    17.8814       46.00000
    17.8920       41.90000
    17.9025       47.00000
    17.9130       61.30000
    17.9235       49.00000
    17.9341       46.00000
    17.9446       49.00000
    17.9551       50.00000
    17.9656       48.00000
    17.9761       53.10000
    17.9867       42.90000
    17.9972       49.00000
    18.0077       48.00000
    18.0182       32.70000
    18.0288       57.20000
    18.0393       53.10000
    18.0498       49.00000
    18.0603       51.10000
    18.0709       57.20000
    18.0814       40.80000
    18.0919       43.90000
    18.1024       31.70000
    18.1129       41.90000
    18.1235       48.00000
    18.1340       49.00000
    18.1445       57.20000
    18.1550       42.90000
    18.1656       46.00000
    18.1761       44.90000
    18.1866       53.10000
    18.1971       50.00000
    18.2076       50.00000
    18.2182       52.10000
    18.2287       54.10000
    18.2392       46.00000
    18.2497       32.70000
    18.2603       56.20000
    18.2708       47.00000
    18.2813       43.90000
    18.2918       42.90000
    18.3023       44.90000
    18.3129       47.00000
    18.3234       49.00000
    18.3339       41.90000
    18.3444       52.10000
    18.3550       52.10000
    18.3655       46.00000
    18.3760       53.10000
    18.3865       42.90000
    18.3971       52.10000
    18.4076       41.90000
    18.4181       43.90000
    18.4286       32.70000
    18.4391       46.00000
    18.4497       41.90000
    18.4602       39.80000
    18.4707       28.60000
    18.4812       38.80000
    18.4918       43.90000
    18.5023       44.90000
    18.5128       36.80000
    18.5233       29.60000
    18.5338       40.80000
    18.5444       39.80000
    18.5549       54.10000
    18.5654       42.90000
    18.5759       46.00000
    18.5865       36.80000
    18.5970       50.00000
    18.6075       34.70000
    18.6180       46.00000
    18.6286       44.90000
    18.6391       46.00000
    18.6496       41.90000
    18.6601       37.80000
    18.6706       47.00000
    18.6812       49.00000
    18.6917       42.90000
    18.7022       42.90000
    18.7127       42.90000
    18.7233       47.00000
    18.7338       43.90000
    18.7443       36.80000
    18.7548       35.70000
    18.7653       42.90000
    18.7759       43.90000
    18.7864       52.10000
    18.7969       34.70000
    18.8074       36.80000
    18.8180       51.10000
    18.8285       49.00000
    18.8390       39.80000
    18.8495       46.00000
    18.8600       39.80000
    18.8706       43.90000
    18.8811       44.90000
    18.8916       48.00000
    18.9021       35.70000
    18.9127       47.00000
    18.9232       57.20000
    18.9337       55.10000
    18.9442       42.90000
    18.9548       44.90000
    18.9653       36.80000
    18.9758       50.00000
    18.9863       52.10000
    18.9968       51.10000
    19.0074       37.80000
    19.0179       38.80000
    19.0284       27.60000
    19.0389       41.90000
    19.0495       42.90000
    19.0600       47.00000
    19.0705       32.70000
    19.0810       47.00000
    19.0915       46.00000
    19.1021       37.80000
    19.1126       43.90000
    19.1231       38.80000
    19.1336       43.90000
    19.1442       53.10000
    19.1547       33.70000
    19.1652       49.00000
    19.1757       52.10000
    19.1862       24.50000
    19.1968       35.70000
    19.2073       54.10000
    19.2178       47.00000
    19.2283       40.80000
    19.2389       48.00000
    19.2494       63.30000
    19.2599       43.90000
    19.2704       44.90000
    19.2810       39.80000
    19.2915       41.90000
    19.3020       41.90000
    19.3125       33.70000
    19.3230       34.70000
    19.3336       46.00000
    19.3441       43.90000
    19.3546       43.90000
    19.3651       44.90000
    19.3757       62.30000
    19.3862       35.70000
    19.3967       42.90000
    19.4072       47.00000
    19.4177       42.90000
    19.4283       46.00000
    19.4388       48.00000
    19.4493       37.80000
    19.4598       36.80000
    19.4704       35.70000
    19.4809       53.10000
    19.4914       41.90000
    19.5019       44.90000
    19.5125       41.90000
    19.5230       35.70000
    19.5335       43.90000
    19.5440       48.00000
    19.5545       42.90000
    19.5651       27.60000
    19.5756       59.20000
    19.5861       53.10000
    19.5966       33.70000
    19.6072       40.80000
    19.6177       32.70000
    19.6282       35.70000
    19.6387       39.80000
    19.6492       44.90000
    19.6598       38.80000
    19.6703       47.00000
    19.6808       47.00000
    19.6913       46.00000
    19.7019       38.80000
    19.7124       53.10000
    19.7229       53.10000
    19.7334       52.10000
    19.7439       39.80000
    19.7545       35.70000
    19.7650       43.90000
    19.7755       41.90000
    19.7860       33.70000
    19.7966       47.00000
    19.8071       53.10000
    19.8176       40.80000
    19.8281       49.00000
    19.8387       38.80000
    19.8492       53.10000
    19.8597       49.00000
    19.8702       46.00000
    19.8807       38.80000
    19.8913       36.80000
    19.9018       46.00000
    19.9123       49.00000
    19.9228       33.70000
    19.9334       32.70000
    19.9439       47.00000
    19.9544       43.90000
    19.9649       37.80000
    19.9754       42.90000
    19.9860       40.80000
    19.9965       49.00000
    20.0070       33.70000
    20.0175       38.80000
    20.0281       53.10000
    20.0386       39.80000
    20.0491       60.30000
    20.0596       43.90000
    20.0701       58.20000
    20.0807       41.90000
    20.0912       49.00000
    20.1017       43.90000
    20.1122       43.90000
    20.1228       41.90000
    20.1333       37.80000
    20.1438       47.00000
    20.1543       57.20000
    20.1649       47.00000
    20.1754       34.70000
    20.1859       50.00000
    20.1964       44.90000
    20.2069       34.70000
    20.2175       44.90000
    20.2280       59.20000
    20.2385       41.90000
    20.2490       37.80000
    20.2596       36.80000
    20.2701       47.00000
    20.2806       34.70000
    20.2911       44.90000
    20.3016       56.20000
    20.3122       46.00000
    20.3227       49.00000
    20.3332       47.00000
    20.3437       42.90000
    20.3543       50.00000
    20.3648       46.00000
    20.3753       47.00000
    20.3858       51.10000
    20.3964       57.20000
    20.4069       51.10000
    20.4174       56.20000
    20.4279       57.20000
    20.4384       65.40000
    20.4490       51.10000
    20.4595       69.40000
    20.4700       74.60000
    20.4805       59.20000
    20.4911       76.60000
    20.5016       65.40000
    20.5121       67.40000
    20.5226      103.10000
    20.5331       86.80000
    20.5437       78.60000
    20.5542       91.90000
    20.5647       95.00000
    20.5752      117.40000
    20.5858      126.60001
    20.5963      117.40000
    20.6068      143.00000
    20.6173      191.00000
    20.6278      190.00000
    20.6384      236.89999
    20.6489      233.89999
    20.6594      303.29999
    20.6699      377.89999
    20.6805      378.89999
    20.6910      472.80002
    20.7015      549.40002
    20.7120      658.70001
    20.7226      775.09998
    20.7331      796.60004
    20.7436     1010.00006
    20.7541     1173.40002
    20.7646     1271.40002
    20.7752     1375.59998
    20.7857     1340.90002
    20.7962     1264.29993
    20.8067     1325.59998
    20.8173     1334.79993
    20.8278     1061.09998
    20.8383     1006.90002
    20.8488      853.79999
    20.8593      775.09998
    20.8699      648.50000
    20.8804      543.29999
    20.8909      479.00000
    20.9014      394.19998
    20.9120      311.50000
    20.9225      247.09999
    20.9330      257.39999
    20.9435      217.50000
    20.9541      183.80000
    20.9646      162.39999
    20.9751      152.20000
    20.9856      116.40000
    20.9961      121.50000
    21.0067      128.70000
    21.0172      110.30000
    21.0277      115.40000
    21.0382       85.80000
    21.0488       90.90000
    21.0593       75.60000
    21.0698       84.80000
    21.0803       57.20000
    21.0908       72.50000
    21.1014       55.10000
    21.1119       67.40000
    21.1224       68.40000
    21.1329       55.10000
    21.1435       77.60001
    21.1540       66.39999
    21.1645       66.39999
    21.1750       42.90000
    21.1855       49.00000
    21.1961       48.00000
    21.2066       52.10000
    21.2171       43.90000
    21.2276       52.10000
    21.2382       52.10000
    21.2487       52.10000
    21.2592       51.10000
    21.2697       51.10000
    21.2803       52.10000
    21.2908       50.00000
    21.3013       48.00000
    21.3118       41.90000
    21.3223       52.10000
    21.3329       51.10000
    21.3434       39.80000
    21.3539       50.00000
    21.3644       42.90000
    21.3750       53.10000
    21.3855       47.00000
    21.3960       47.00000
    21.4065       44.90000
    21.4170       43.90000
    21.4276       50.00000
    21.4381       40.80000
    21.4486       53.10000
    21.4591       58.20000
    21.4697       34.70000
    21.4802       52.10000
    21.4907       46.00000
    21.5012       41.90000
    21.5117       33.70000
    21.5223       40.80000
    21.5328       42.90000
    21.5433       37.80000
    21.5538       49.00000
    21.5644       37.80000
    21.5749       34.70000
    21.5854       38.80000
    21.5959       31.70000
    21.6065       31.70000
    21.6170       44.90000
    21.6275       35.70000
    21.6380       29.60000
    21.6485       30.60000
    21.6591       33.70000
    21.6696       44.90000
    21.6801       36.80000
    21.6906       44.90000
    21.7012       40.80000
    21.7117       50.00000
    21.7222       39.80000
    21.7327       37.80000
    21.7432       34.70000
    21.7538       38.80000
    21.7643       33.70000
    21.7748       38.80000
    21.7853       35.70000
    21.7959       38.80000
    21.8064       39.80000
    21.8169       36.80000
    21.8274       42.90000
    21.8380       36.80000
    21.8485       36.80000
    21.8590       38.80000
    21.8695       33.70000
    21.8800       40.80000
    21.8906       37.80000
    21.9011       44.90000
    21.9116       38.80000
    21.9221       27.60000
    21.9327       37.80000
    21.9432       43.90000
    21.9537       35.70000
    21.9642       35.70000
    21.9747       50.00000
    21.9853       36.80000
    21.9958       47.00000
    22.0063       39.80000
    22.0168       41.90000
    22.0274       34.70000
    22.0379       39.80000
    22.0484       36.80000
    22.0589       40.80000
    22.0694       48.00000
    22.0800       27.60000
    22.0905       47.00000
    22.1010       40.80000
    22.1115       37.80000
    22.1221       37.80000
    22.1326       41.90000
    22.1431       46.00000
    22.1536       51.10000
    22.1642       35.70000
    22.1747       36.80000
    22.1852       46.00000
    22.1957       42.90000
    22.2062       35.70000
    22.2168       29.60000
    22.2273       54.10000
    22.2378       38.80000
    22.2483       44.90000
    22.2589       49.00000
    22.2694       48.00000
    22.2799       53.10000
    22.2904       43.90000
    22.3009       42.90000
    22.3115       57.20000
    22.3220       61.30000
    22.3325       40.80000
    22.3430       48.00000
    22.3536       51.10000
    22.3641       51.10000
    22.3746       53.10000
    22.3851       48.00000
    22.3956       53.10000
    22.4062       46.00000
    22.4167       52.10000
    22.4272       66.39999
    22.4377       55.10000
    22.4483       64.30000
    22.4588       54.10000
    22.4693       42.90000
    22.4798       71.50000
    22.4904       48.00000
    22.5009       72.50000
    22.5114       58.20000
    22.5219       66.39999
    22.5324       83.70000
    22.5430       84.80000
    22.5535       83.70000
    22.5640       96.00000
    22.5745      112.30000
    22.5851      132.79999
    22.5956      133.80000
    22.6061      171.59999
    22.6166      191.00000
    22.6271      230.80000
    22.6377      230.80000
    22.6482      254.30000
    22.6587      302.29999
    22.6692      327.80002
    22.6798      349.29999
    22.6903      399.29999
    22.7008      460.60001
    22.7113      455.49997
    22.7219      474.89999
    22.7324      471.79999
    22.7429      509.60001
    22.7534      520.80005
    22.7639      476.89999
    22.7745      482.00003
    22.7850      372.79999
    22.7955      379.89999
    22.8060      308.40002
    22.8166      266.50000
    22.8271      259.40002
    22.8376      220.60001
    22.8481      194.00000
    22.8586      168.50000
    22.8692      158.29999
    22.8797      137.89999
    22.8902      117.40000
    22.9007      108.30000
    22.9113       86.80000
    22.9218      111.30000
    22.9323       82.70000
    22.9428       89.90000
    22.9533       69.40000
    22.9639       48.00000
    22.9744       74.60000
    22.9849       55.10000
    22.9954       55.10000
    23.0060       61.30000
    23.0165       71.50000
    23.0270       56.20000
    23.0375       58.20000
    23.0481       57.20000
    23.0586       50.00000
    23.0691       37.80000
    23.0796       53.10000
    23.0901       55.10000
    23.1007       53.10000
    23.1112       36.80000
    23.1217       46.00000
    23.1322       54.10000
    23.1428       53.10000
    23.1533       48.00000
    23.1638       41.90000
    23.1743       36.80000
    23.1848       60.30000
    23.1954       47.00000
    23.2059       34.70000
    23.2164       31.70000
    23.2269       41.90000
    23.2375       35.70000
    23.2480       40.80000
    23.2585       44.90000
    23.2690       39.80000
    23.2795       51.10000
    23.2901       53.10000
    23.3006       42.90000
    23.3111       40.80000
    23.3216       42.90000
    23.3322       33.70000
    23.3427       46.00000
    23.3532       37.80000
    23.3637       35.70000
    23.3743       36.80000
    23.3848       30.60000
    23.3953       43.90000
    23.4058       28.60000
    23.4163       40.80000
    23.4269       41.90000
    23.4374       34.70000
    23.4479       41.90000
    23.4584       39.80000
    23.4690       32.70000
    23.4795       42.90000
    23.4900       44.90000
    23.5005       49.00000
    23.5110       37.80000
    23.5216       48.00000
    23.5321       35.70000
    23.5426       44.90000
    23.5531       36.80000
    23.5637       49.00000
    23.5742       35.70000
    23.5847       28.60000
    23.5952       34.70000
    23.6058       39.80000
    23.6163       32.70000
    23.6268       43.90000
    23.6373       42.90000
    23.6478       35.70000
    23.6584       35.70000
    23.6689       49.00000
    23.6794       44.90000
    23.6899       25.50000
    23.7005       38.80000
    23.7110       44.90000
    23.7215       36.80000
    23.7320       41.90000
    23.7425       44.90000
    23.7531       36.80000
    23.7636       39.80000
    23.7741       39.80000
    23.7846       56.20000
    23.7952       51.10000
    23.8057       38.80000
    23.8162       41.90000
    23.8267       47.00000
    23.8372       52.10000
    23.8478       57.20000
    23.8583       39.80000
    23.8688       51.10000
    23.8793       50.00000
    23.8899       48.00000
    23.9004       58.20000
    23.9109       52.10000
    23.9214       60.30000
    23.9320       62.30000
    23.9425       73.50000
    23.9530       81.70000
    23.9635       97.00000
    23.9740       89.90000
    23.9846      113.39999
    23.9951      119.50001
    24.0056      127.70000
    24.0161      127.70000
    24.0267      162.39999
    24.0372      152.20000
    24.0477      168.50000
    24.0582      215.50000
    24.0687      198.09999
    24.0793      194.00000
    24.0898      192.00000
    24.1003      173.59999
    24.1108      184.80000
    24.1214      161.39999
    24.1319      166.50000
    24.1424      156.30000
    24.1529      136.80000
    24.1635      112.30000
    24.1740      108.30000
    24.1845      106.20000
    24.1950      105.20000
    24.2055       84.80000
    24.2161       66.39999
    24.2266       70.50000
    24.2371       60.30000
    24.2476       70.50000
    24.2582       66.39999
    24.2687       68.40000
    24.2792       50.00000
    24.2897       61.30000
    24.3002       43.90000
    24.3108       44.90000
    24.3213       51.10000
    24.3318       54.10000
    24.3423       41.90000
    24.3529       36.80000
    24.3634       54.10000
    24.3739       46.00000
    24.3844       39.80000
    24.3949       35.70000
    24.4055       40.80000
    24.4160       40.80000
    24.4265       41.90000
    24.4370       27.60000
    24.4476       40.80000
    24.4581       32.70000
    24.4686       23.50000
    24.4791       32.70000
    24.4897       43.90000
    24.5002       24.50000
    24.5107       36.80000
    24.5212       41.90000
    24.5317       35.70000
    24.5423       37.80000
    24.5528       39.80000
    24.5633       39.80000
    24.5738       44.90000
    24.5844       33.70000
    24.5949       39.80000
    24.6054       32.70000
    24.6159       44.90000
    24.6264       37.80000
    24.6370       38.80000
    24.6475       50.00000
    24.6580       29.60000
    24.6685       30.60000
    24.6791       32.70000
    24.6896       46.00000
    24.7001       52.10000
    24.7106       38.80000
    24.7211       43.90000
    24.7317       34.70000
    24.7422       53.10000
    24.7527       39.80000
    24.7632       44.90000
    24.7738       29.60000
    24.7843       44.90000
    24.7948       40.80000
    24.8053       37.80000
    24.8159       35.70000
    24.8264       39.80000
    24.8369       38.80000
    24.8474       40.80000
    24.8579       29.60000
    24.8685       38.80000
    24.8790       33.70000
    24.8895       41.90000
    24.9000       34.70000
    24.9106       43.90000
    24.9211       43.90000
    24.9316       37.80000
    24.9421       43.90000
    24.9526       40.80000
    24.9632       38.80000
    24.9737       46.00000
    24.9842       34.70000
    24.9947       33.70000
    25.0053       48.00000
    25.0158       44.90000
    25.0263       40.80000
    25.0368       41.90000
    25.0474       32.70000
    25.0579       34.70000
    25.0684       50.00000
    25.0789       53.10000
    25.0894       51.10000
    25.1000       46.00000
    25.1105       56.20000
    25.1210       50.00000
    25.1315       49.00000
    25.1421       47.00000
    25.1526       57.20000
    25.1631       50.00000
    25.1736       50.00000
    25.1841       70.50000
    25.1947       57.20000
    25.2052       59.20000
    25.2157       75.60000
    25.2262       67.40000
    25.2368       61.30000
    25.2473       66.39999
    25.2578       78.60000
    25.2683       81.70000
    25.2788       74.60000
    25.2894       95.00000
    25.2999       98.00000
    25.3104       96.00000
    25.3209      107.20000
    25.3315      103.10000
    25.3420      118.49999
    25.3525      137.89999
    25.3630      150.10001
    25.3736      152.20000
    25.3841      181.80000
    25.3946      178.70000
    25.4051      221.60001
    25.4156      240.00002
    25.4262      255.30000
    25.4367      292.10001
    25.4472      350.29999
    25.4577      425.89999
    25.4683      409.49997
    25.4788      498.40002
    25.4893      586.20001
    25.4998      650.50000
    25.5103      756.70001
    25.5209      866.00000
    25.5314     1008.00000
    25.5419     1191.80005
    25.5524     1284.69995
    25.5630     1405.19995
    25.5735     1506.29993
    25.5840     1677.89990
    25.5945     1675.90002
    25.6050     1613.59998
    25.6156     1784.09998
    25.6261     1704.50000
    25.6366     1585.00000
    25.6471     1504.30005
    25.6577     1330.70007
    25.6682     1206.09998
    25.6787     1045.80005
    25.6892      958.89996
    25.6998      825.20001
    25.7103      735.29999
    25.7208      656.70001
    25.7313      587.20001
    25.7418      449.29999
    25.7524      401.29999
    25.7629      367.60001
    25.7734      338.00000
    25.7839      306.39999
    25.7945      273.70001
    25.8050      224.70000
    25.8155      181.80000
    25.8260      179.70001
    25.8365      160.30000
    25.8471      145.00000
    25.8576      123.59999
    25.8681      121.50000
    25.8786       94.00000
    25.8892      104.20000
    25.8997      111.30000
    25.9102       85.80000
    25.9207       78.60000
    25.9313       79.70000
    25.9418       97.00000
    25.9523       85.80000
    25.9628       81.70000
    25.9733       77.60001
    25.9839       64.30000
    25.9944       59.20000
    26.0049       74.60000
    26.0154       44.90000
    26.0260       63.30000
    26.0365       64.30000
    26.0470       51.10000
    26.0575       46.00000
    26.0680       51.10000
    26.0786       63.30000
    26.0891       42.90000
    26.0996       49.00000
    26.1101       47.00000
    26.1207       36.80000
    26.1312       29.60000
    26.1417       43.90000
    26.1522       59.20000
    26.1627       43.90000
    26.1733       48.00000
    26.1838       51.10000
    26.1943       41.90000
    26.2048       37.80000
    26.2154       40.80000
    26.2259       43.90000
    26.2364       40.80000
    26.2469       57.20000
    26.2575       53.10000
    26.2680       47.00000
    26.2785       33.70000
    26.2890       40.80000
    26.2995       51.10000
    26.3101       37.80000
    26.3206       32.70000
    26.3311       40.80000
    26.3416       44.90000
    26.3522       37.80000
    26.3627       30.60000
    26.3732       35.70000
    26.3837       35.70000
    26.3942       33.70000
    26.4048       23.50000
    26.4153       38.80000
    26.4258       23.50000
    26.4363       31.70000
    26.4469       40.80000
    26.4574       29.60000
    26.4679       32.70000
    26.4784       35.70000
    26.4889       50.00000
    26.4995       43.90000
    26.5100       31.70000
    26.5205       34.70000
    26.5310       44.90000
    26.5416       37.80000
    26.5521       36.80000
    26.5626       32.70000
    26.5731       31.70000
    26.5837       37.80000
    26.5942       28.60000
    26.6047       38.80000
    26.6152       36.80000
    26.6257       33.70000
    26.6363       40.80000
    26.6468       37.80000
    26.6573       24.50000
    26.6678       29.60000
    26.6784       24.50000
    26.6889       32.70000
    26.6994       27.60000
    26.7099       28.60000
    26.7204       28.60000
    26.7310       28.60000
    26.7415       33.70000
    26.7520       43.90000
    26.7625       28.60000
    26.7731       29.60000
    26.7836       37.80000
    26.7941       39.80000
    26.8046       39.80000
    26.8152       31.70000
    26.8257       36.80000
    26.8362       39.80000
    26.8467       29.60000
    26.8572       21.40000
    26.8678       28.60000
    26.8783       34.70000
    26.8888       31.70000
    26.8993       28.60000
    26.9099       34.70000
    26.9204       27.60000
    26.9309       29.60000
    26.9414       40.80000
    26.9519       36.80000
    26.9625       31.70000
    26.9730       25.50000
    26.9835       48.00000
    26.9940       29.60000
    27.0046       36.80000
    27.0151       36.80000
    27.0256       35.70000
    27.0361       26.60000
    27.0466       32.70000
    27.0572       26.60000
    27.0677       24.50000
    27.0782       36.80000
    27.0887       30.60000
    27.0993       30.60000
    27.1098       29.60000
    27.1203       41.90000
    27.1308       32.70000
    27.1414       30.60000
    27.1519       39.80000
    27.1624       32.70000
    27.1729       23.50000
    27.1834       41.90000
    27.1940       35.70000
    27.2045       41.90000
    27.2150       29.60000
    27.2255       37.80000
    27.2361       32.70000
    27.2466       34.70000
    27.2571       25.50000
    27.2676       29.60000
    27.2781       35.70000
    27.2887       33.70000
    27.2992       20.40000
    27.3097       32.70000
    27.3202       25.50000
    27.3308       16.30000
    27.3413       30.60000
    27.3518       37.80000
    27.3623       29.60000
    27.3728       30.60000
    27.3834       34.70000
    27.3939       30.60000
    27.4044       30.60000
    27.4149       33.70000
    27.4255       32.70000
    27.4360       34.70000
    27.4465       39.80000
    27.4570       33.70000
    27.4676       24.50000
    27.4781       39.80000
    27.4886       29.60000
    27.4991       27.60000
    27.5096       33.70000
    27.5202       28.60000
    27.5307       26.60000
    27.5412       28.60000
    27.5517       36.80000
    27.5623       35.70000
    27.5728       32.70000
    27.5833       24.50000
    27.5938       27.60000
    27.6043       24.50000
    27.6149       20.40000
    27.6254       35.70000
    27.6359       35.70000
    27.6464       37.80000
    27.6570       34.70000
    27.6675       33.70000
    27.6780       28.60000
    27.6885       25.50000
    27.6991       40.80000
    27.7096       30.60000
    27.7201       23.50000
    27.7306       36.80000
    27.7411       26.60000
    27.7517       23.50000
    27.7622       35.70000
    27.7727       31.70000
    27.7832       31.70000
    27.7938       24.50000
    27.8043       39.80000
    27.8148       25.50000
    27.8253       34.70000
    27.8358       23.50000
    27.8464       18.40000
    27.8569       34.70000
    27.8674       34.70000
    27.8779       36.80000
    27.8885       29.60000
    27.8990       26.60000
    27.9095       36.80000
    27.9200       30.60000
    27.9305       33.70000
    27.9411       31.70000
    27.9516       39.80000
    27.9621       22.50000
    27.9726       24.50000
    27.9832       32.70000
    27.9937       31.70000
    28.0042       27.60000
    28.0147       35.70000
    28.0253       31.70000
    28.0358       26.60000
    28.0463       35.70000
    28.0568       33.70000
    28.0673       33.70000
    28.0779       30.60000
    28.0884       24.50000
    28.0989       30.60000
    28.1094       28.60000
    28.1200       35.70000
    28.1305       35.70000
    28.1410       30.60000
    28.1515       31.70000
    28.1620       36.80000
    28.1726       36.80000
    28.1831       32.70000
    28.1936       32.70000
    28.2041       38.80000
    28.2147       27.60000
    28.2252       25.50000
    28.2357       33.70000
    28.2462       28.60000
    28.2568       28.60000
    28.2673       30.60000
    28.2778       35.70000
    28.2883       38.80000
    28.2988       32.70000
    28.3094       39.80000
    28.3199       29.60000
    28.3304       40.80000
    28.3409       32.70000
    28.3515       36.80000
    28.3620       44.90000
    28.3725       38.80000
    28.3830       31.70000
    28.3935       39.80000
    28.4041       35.70000
    28.4146       38.80000
    28.4251       28.60000
    28.4356       27.60000
    28.4462       38.80000
    28.4567       33.70000
    28.4672       31.70000
    28.4777       31.70000
    28.4882       35.70000
    28.4988       27.60000
    28.5093       42.90000
    28.5198       23.50000
    28.5303       27.60000
    28.5409       27.60000
    28.5514       46.00000
    28.5619       35.70000
    28.5724       38.80000
    28.5830       32.70000
    28.5935       35.70000
    28.6040       30.60000
    28.6145       28.60000
    28.6250       46.00000
    28.6356       41.90000
    28.6461       32.70000
    28.6566       23.50000
    28.6671       36.80000
    28.6777       39.80000
    28.6882       37.80000
    28.6987       33.70000
    28.7092       29.60000
    28.7197       38.80000
    28.7303       31.70000
    28.7408       35.70000
    28.7513       37.80000
    28.7618       41.90000
    28.7724       29.60000
    28.7829       31.70000
    28.7934       34.70000
    28.8039       37.80000
    28.8144       29.60000
    28.8250       40.80000
    28.8355       37.80000
    28.8460       32.70000
    28.8565       37.80000
    28.8671       35.70000
    28.8776       30.60000
    28.8881       31.70000
    28.8986       36.80000
    28.9092       40.80000
    28.9197       40.80000
    28.9302       41.90000
    28.9407       30.60000
    28.9512       42.90000
    28.9618       49.00000
    28.9723       34.70000
    28.9828       30.60000
    28.9933       32.70000
    29.0039       42.90000
    29.0144       40.80000
    29.0249       40.80000
    29.0354       36.80000
    29.0459       41.90000
    29.0565       35.70000
    29.0670       37.80000
    29.0775       34.70000
    29.0880       37.80000
    29.0986       39.80000
    29.1091       37.80000
    29.1196       48.00000
    29.1301       47.00000
    29.1407       36.80000
    29.1512       35.70000
    29.1617       40.80000
    29.1722       44.90000
    29.1827       51.10000
    29.1933       53.10000
    29.2038       46.00000
    29.2143       43.90000
    29.2248       49.00000
    29.2354       58.20000
    29.2459       40.80000
    29.2564       57.20000
    29.2669       53.10000
    29.2774       57.20000
    29.2880       59.20000
    29.2985       56.20000
    29.3090       49.00000
    29.3195       65.40000
    29.3301       48.00000
    29.3406       64.30000
    29.3511       68.40000
    29.3616       55.10000
    29.3721       74.60000
    29.3827       61.30000
    29.3932       73.50000
    29.4037       68.40000
    29.4142       86.80000
    29.4248       91.90000
    29.4353       85.80000
    29.4458       90.90000
    29.4563       95.00000
    29.4669       97.00000
    29.4774      104.20000
    29.4879      128.70000
    29.4984      108.30000
    29.5089      126.60001
    29.5195      148.09999
    29.5300      146.00000
    29.5405      173.59999
    29.5510      183.80000
    29.5616      198.09999
    29.5721      203.20001
    29.5826      212.40001
    29.5931      272.70001
    29.6036      299.20001
    29.6142      308.40002
    29.6247      311.50000
    29.6352      360.50000
    29.6457      437.09998
    29.6563      472.80002
    29.6668      548.40002
    29.6773      550.40002
    29.6878      691.40002
    29.6983      750.59998
    29.7089      849.69995
    29.7194      936.50000
    29.7299     1019.20001
    29.7404     1115.20007
    29.7510     1133.60010
    29.7615     1287.80005
    29.7720     1341.90002
    29.7825     1318.40002
    29.7931     1344.00000
    29.8036     1403.19995
    29.8141     1359.30005
    29.8246     1325.59998
    29.8351     1268.40002
    29.8457     1182.59998
    29.8562     1172.40002
    29.8667     1107.00000
    29.8772     1004.89996
    29.8878      910.90002
    29.8983      822.09998
    29.9088      727.09998
    29.9193      689.29999
    29.9298      589.29999
    29.9404      522.90002
    29.9509      432.00003
    29.9614      407.49997
    29.9719      366.59998
    29.9825      291.10001
    29.9930      266.50000
    30.0035      261.39999
    30.0140      237.89999
    30.0246      185.89999
    30.0351      177.70000
    30.0456      158.29999
    30.0561      138.90001
    30.0666      117.40000
    30.0772      104.20000
    30.0877      110.30000
    30.0982      102.10001
    30.1087       92.90000
    30.1193       71.50000
    30.1298       88.80000
    30.1403       65.40000
    30.1508       60.30000
    30.1613       83.70000
    30.1719       70.50000
    30.1824       60.30000
    30.1929       54.10000
    30.2034       58.20000
    30.2140       52.10000
    30.2245       61.30000
    30.2350       61.30000
    30.2455       50.00000
    30.2560       41.90000
    30.2666       48.00000
    30.2771       66.39999
    30.2876       50.00000
    30.2981       44.90000
    30.3087       38.80000
    30.3192       39.80000
    30.3297       53.10000
    30.3402       34.70000
    30.3508       41.90000
    30.3613       37.80000
    30.3718       43.90000
    30.3823       44.90000
    30.3928       49.00000
    30.4034       42.90000
    30.4139       41.90000
    30.4244       39.80000
    30.4349       40.80000
    30.4455       41.90000
    30.4560       28.60000
    30.4665       42.90000
    30.4770       25.50000
    30.4875       44.90000
    30.4981       23.50000
    30.5086       42.90000
    30.5191       39.80000
    30.5296       38.80000
    30.5402       32.70000
    30.5507       31.70000
    30.5612       30.60000
    30.5717       41.90000
    30.5822       25.50000
    30.5928       27.60000
    30.6033       50.00000
    30.6138       33.70000
    30.6243       47.00000
    30.6349       22.50000
    30.6454       35.70000
    30.6559       46.00000
    30.6664       31.70000
    30.6770       22.50000
    30.6875       31.70000
    30.6980       35.70000
    30.7085       27.60000
    30.7190       39.80000
    30.7296       32.70000
    30.7401       28.60000
    30.7506       44.90000
    30.7611       27.60000
    30.7717       33.70000
    30.7822       21.40000
    30.7927       35.70000
    30.8032       33.70000
    30.8137       38.80000
    30.8243       37.80000
    30.8348       33.70000
    30.8453       35.70000
    30.8558       37.80000
    30.8664       36.80000
    30.8769       30.60000
    30.8874       33.70000
    30.8979       28.60000
    30.9085       40.80000
    30.9190       25.50000
    30.9295       24.50000
    30.9400       32.70000
    30.9505       34.70000
    30.9611       41.90000
    30.9716       36.80000
    30.9821       28.60000
    30.9926       30.60000
    31.0032       24.50000
    31.0137       31.70000
    31.0242       23.50000
    31.0347       41.90000
    31.0452       37.80000
    31.0558       25.50000
    31.0663       33.70000
    31.0768       25.50000
    31.0873       28.60000
    31.0979       25.50000
    31.1084       36.80000
    31.1189       38.80000
    31.1294       21.40000
    31.1399       33.70000
    31.1505       31.70000
    31.1610       35.70000
    31.1715       25.50000
    31.1820       27.60000
    31.1926       31.70000
    31.2031       17.40000
    31.2136       34.70000
    31.2241       30.60000
    31.2347       43.90000
    31.2452       32.70000
    31.2557       25.50000
    31.2662       31.70000
    31.2767       38.80000
    31.2873       29.60000
    31.2978       36.80000
    31.3083       32.70000
    31.3188       35.70000
    31.3294       31.70000
    31.3399       22.50000
    31.3504       33.70000
    31.3609       23.50000
    31.3714       27.60000
    31.3820       28.60000
    31.3925       34.70000
    31.4030       27.60000
    31.4135       21.40000
    31.4241       34.70000
    31.4346       29.60000
    31.4451       18.40000
    31.4556       32.70000
    31.4662       33.70000
    31.4767       36.80000
    31.4872       38.80000
    31.4977       24.50000
    31.5082       31.70000
    31.5188       31.70000
    31.5293       27.60000
    31.5398       30.60000
    31.5503       27.60000
    31.5609       37.80000
    31.5714       23.50000
    31.5819       37.80000
    31.5924       25.50000
    31.6029       33.70000
    31.6135       31.70000
    31.6240       31.70000
    31.6345       34.70000
    31.6450       36.80000
    31.6556       37.80000
    31.6661       33.70000
    31.6766       26.60000
    31.6871       24.50000
    31.6976       29.60000
    31.7082       38.80000
    31.7187       40.80000
    31.7292       47.00000
    31.7397       36.80000
    31.7503       39.80000
    31.7608       35.70000
    31.7713       22.50000
    31.7818       27.60000
    31.7924       36.80000
    31.8029       39.80000
    31.8134       32.70000
    31.8239       38.80000
    31.8344       34.70000
    31.8450       33.70000
    31.8555       34.70000
    31.8660       42.90000
    31.8765       52.10000
    31.8871       39.80000
    31.8976       46.00000
    31.9081       38.80000
    31.9186       44.90000
    31.9291       39.80000
    31.9397       47.00000
    31.9502       50.00000
    31.9607       52.10000
    31.9712       67.40000
    31.9818       59.20000
    31.9923       71.50000
    32.0028       63.30000
    32.0133       62.30000
    32.0238       85.80000
    32.0344       76.60000
    32.0449      109.30000
    32.0554      100.10001
    32.0659      118.49999
    32.0765      101.10001
    32.0870      110.30000
    32.0975      168.50000
    32.1080      170.50000
    32.1186      218.50000
    32.1291      246.09999
    32.1396      263.50000
    32.1501      327.80002
    32.1606      335.00000
    32.1712      395.19998
    32.1817      457.49997
    32.1922      503.50000
    32.2027      528.00000
    32.2133      577.00000
    32.2238      577.00000
    32.2343      593.29999
    32.2448      667.89996
    32.2553      584.20001
    32.2659      588.20001
    32.2764      555.60004
    32.2869      495.30002
    32.2974      419.70001
    32.3080      411.60001
    32.3185      367.60001
    32.3290      342.10001
    32.3395      333.89999
    32.3501      277.80002
    32.3606      246.09999
    32.3711      186.89999
    32.3816      192.00000
    32.3921      146.00000
    32.4027      159.30000
    32.4132      146.00000
    32.4237      147.09999
    32.4342      107.20000
    32.4448      104.20000
    32.4553       87.80000
    32.4658       99.10000
    32.4763       73.50000
    32.4868       80.70000
    32.4974       68.40000
    32.5079       56.20000
    32.5184       56.20000
    32.5289       67.40000
    32.5395       54.10000
    32.5500       56.20000
    32.5605       42.90000
    32.5710       55.10000
    32.5815       42.90000
    32.5921       42.90000
    32.6026       44.90000
    32.6131       49.00000
    32.6236       44.90000
    32.6342       34.70000
    32.6447       46.00000
    32.6552       26.60000
    32.6657       39.80000
    32.6763       29.60000
    32.6868       51.10000
    32.6973       36.80000
    32.7078       39.80000
    32.7183       27.60000
    32.7289       29.60000
    32.7394       28.60000
    32.7499       39.80000
    32.7604       32.70000
    32.7710       26.60000
    32.7815       33.70000
    32.7920       36.80000
    32.8025       22.50000
    32.8130       32.70000
    32.8236       28.60000
    32.8341       34.70000
    32.8446       22.50000
    32.8551       39.80000
    32.8657       24.50000
    32.8762       24.50000
    32.8867       33.70000
    32.8972       27.60000
    32.9077       25.50000
    32.9183       37.80000
    32.9288       29.60000
    32.9393       23.50000
    32.9498       26.60000
    32.9604       33.70000
    32.9709       20.40000
    32.9814       22.50000
    32.9919       16.30000
    33.0025       33.70000
    33.0130       31.70000
    33.0235       28.60000
    33.0340       21.40000
    33.0445       16.30000
    33.0551       26.60000
    33.0656       33.70000
    33.0761       29.60000
    33.0866       29.60000
    33.0972       24.50000
    33.1077       32.70000
    33.1182       22.50000
    33.1287       23.50000
    33.1392       38.80000
    33.1498       25.50000
    33.1603       29.60000
    33.1708       31.70000
    33.1813       24.50000
    33.1919       24.50000
    33.2024       21.40000
    33.2129       18.40000
    33.2234       30.60000
    33.2340       22.50000
    33.2445       30.60000
    33.2550       27.60000
    33.2655       25.50000
    33.2760       25.50000
    33.2866       26.60000
    33.2971       28.60000
    33.3076       24.50000
    33.3181       27.60000
    33.3287       30.60000
    33.3392       30.60000
    33.3497       22.50000
    33.3602       32.70000
    33.3707       25.50000
    33.3813       20.40000
    33.3918       28.60000
    33.4023       33.70000
    33.4128       23.50000
    33.4234       22.50000
    33.4339       18.40000
    33.4444       28.60000
    33.4549       24.50000
    33.4654       26.60000
    33.4760       30.60000
    33.4865       26.60000
    33.4970       33.70000
    33.5075       26.60000
    33.5181       21.40000
    33.5286       29.60000
    33.5391       28.60000
    33.5496       37.80000
    33.5602       27.60000
    33.5707       21.40000
    33.5812       28.60000
    33.5917       27.60000
    33.6022       28.60000
    33.6128       22.50000
    33.6233       17.40000
    33.6338       30.60000
    33.6443       22.50000
    33.6549       24.50000
    33.6654       28.60000
    33.6759       17.40000
    33.6864       31.70000
    33.6969       24.50000
    33.7075       19.40000
    33.7180       24.50000
    33.7285       28.60000
    33.7390       15.30000
    33.7496       27.60000
    33.7601       27.60000
    33.7706       27.60000
    33.7811       33.70000
    33.7916       23.50000
    33.8022       20.40000
    33.8127       36.80000
    33.8232       32.70000
    33.8337       30.60000
    33.8443       31.70000
    33.8548       33.70000
    33.8653       24.50000
    33.8758       20.40000
    33.8864       19.40000
    33.8969       25.50000
    33.9074       29.60000
    33.9179       26.60000
    33.9284       30.60000
    33.9390       23.50000
    33.9495       21.40000
    33.9600       27.60000
    33.9705       23.50000
    33.9811       27.60000
    33.9916       32.70000
    34.0021       26.60000
    34.0126       27.60000
    34.0231       36.80000
    34.0337       30.60000
    34.0442       39.80000
    34.0547       30.60000
    34.0652       22.50000
    34.0758       29.60000
    34.0863       19.40000
    34.0968       33.70000
    34.1073       26.60000
    34.1179       25.50000
    34.1284       28.60000
    34.1389       37.80000
    34.1494       19.40000
    34.1599       30.60000
    34.1705       16.30000
    34.1810       30.60000
    34.1915       35.70000
    34.2020       19.40000
    34.2126       28.60000
    34.2231       31.70000
    34.2336       27.60000
    34.2441       32.70000
    34.2546       32.70000
    34.2652       30.60000
    34.2757       26.60000
    34.2862       33.70000
    34.2967       18.40000
    34.3073       36.80000
    34.3178       28.60000
    34.3283       27.60000
    34.3388       33.70000
    34.3493       24.50000
    34.3599       47.00000
    34.3704       20.40000
    34.3809       44.90000
    34.3914       25.50000
    34.4020       29.60000
    34.4125       29.60000
    34.4230       35.70000
    34.4335       31.70000
    34.4441       38.80000
    34.4546       32.70000
    34.4651       38.80000
    34.4756       51.10000
    34.4861       47.00000
    34.4967       37.80000
    34.5072       60.30000
    34.5177       51.10000
    34.5282       49.00000
    34.5388       60.30000
    34.5493       52.10000
    34.5598       73.50000
    34.5703       61.30000
    34.5808       67.40000
    34.5914       62.30000
    34.6019       62.30000
    34.6124       66.39999
    34.6229       56.20000
    34.6335       71.50000
    34.6440       60.30000
    34.6545       60.30000
    34.6650       59.20000
    34.6756       57.20000
    34.6861       60.30000
    34.6966       51.10000
    34.7071       49.00000
    34.7176       53.10000
    34.7282       52.10000
    34.7387       42.90000
    34.7492       36.80000
    34.7597       35.70000
    34.7703       57.20000
    34.7808       41.90000
    34.7913       36.80000
    34.8018       54.10000
    34.8123       42.90000
    34.8229       39.80000
    34.8334       34.70000
    34.8439       36.80000
    34.8544       41.90000
    34.8650       41.90000
    34.8755       36.80000
    34.8860       49.00000
    34.8965       28.60000
    34.9070       37.80000
    34.9176       31.70000
    34.9281       40.80000
    34.9386       38.80000
    34.9491       31.70000
    34.9597       33.70000
    34.9702       37.80000
    34.9807       33.70000
    34.9912       29.60000
    35.0018       55.10000
    35.0123       34.70000
    35.0228       43.90000
    35.0333       38.80000
    35.0438       32.70000
    35.0544       42.90000
    35.0649       42.90000
    35.0754       57.20000
    35.0859       52.10000
    35.0965       36.80000
    35.1070       53.10000
    35.1175       47.00000
    35.1280       41.90000
    35.1385       51.10000
    35.1491       57.20000
    35.1596       53.10000
    35.1701       46.00000
    35.1806       50.00000
    35.1912       78.60000
    35.2017       63.30000
    35.2122       65.40000
    35.2227       66.39999
    35.2332       70.50000
    35.2438       72.50000
    35.2543       88.80000
    35.2648       86.80000
    35.2753       81.70000
    35.2859       81.70000
    35.2964      116.40000
    35.3069      119.50001
    35.3174      111.30000
    35.3280      128.70000
    35.3385      105.20000
    35.3490      119.50001
    35.3595      140.90001
    35.3700      160.30000
    35.3806      167.50000
    35.3911      186.89999
    35.4016      204.20001
    35.4121      209.40001
    35.4227      272.70001
    35.4332      263.50000
    35.4437      319.60001
    35.4542      325.79999
    35.4647      389.10001
    35.4753      447.30002
    35.4858      499.39999
    35.4963      547.40002
    35.5068      609.70001
    35.5174      742.39996
    35.5279      793.50000
    35.5384      933.39996
    35.5489     1029.40002
    35.5595     1115.20007
    35.5700     1272.50000
    35.5805     1432.80005
    35.5910     1555.40002
    35.6015     1608.49988
    35.6121     1717.69995
    35.6226     1727.89990
    35.6331     1733.00000
    35.6436     1833.09998
    35.6542     1667.69995
    35.6647     1617.60010
    35.6752     1546.19995
    35.6857     1452.20007
    35.6962     1300.00000
    35.7068     1236.69995
    35.7173     1062.09998
    35.7278      917.09998
    35.7383      876.20001
    35.7489      739.40002
    35.7594      648.50000
    35.7699      571.89996
    35.7804      516.69995
    35.7909      423.79999
    35.8015      461.60001
    35.8120      332.89999
    35.8225      367.60001
    35.8330      312.50000
    35.8436      260.40002
    35.8541      260.40002
    35.8646      251.20001
    35.8751      222.60001
    35.8857      207.29999
    35.8962      188.90001
    35.9067      164.40001
    35.9172      131.70000
    35.9277      118.49999
    35.9383      133.80000
    35.9488      114.40001
    35.9593       86.80000
    35.9698      123.59999
    35.9804      100.10001
    35.9909       88.80000
    36.0014       94.00000
    36.0119       95.00000
    36.0224       83.70000
    36.0330       67.40000
    36.0435       81.70000
    36.0540       81.70000
    36.0645       85.80000
    36.0751       79.70000
    36.0856       73.50000
    36.0961       77.60001
    36.1066       65.40000
    36.1171       76.60000
    36.1277       50.00000
    36.1382       61.30000
    36.1487       60.30000
    36.1592       55.10000
    36.1698       71.50000
    36.1803       56.20000
    36.1908       62.30000
    36.2013       70.50000
    36.2119       65.40000
    36.2224       64.30000
    36.2329       66.39999
    36.2434       75.60000
    36.2539       53.10000
    36.2645       69.40000
    36.2750       66.39999
    36.2855       72.50000
    36.2960       76.60000
    36.3066       73.50000
    36.3171       73.50000
    36.3276       85.80000
    36.3381       88.80000
    36.3486       74.60000
    36.3592       79.70000
    36.3697      101.10001
    36.3802      114.40001
    36.3907      120.50001
    36.4013      108.30000
    36.4118      124.60001
    36.4223      153.20000
    36.4328      154.20001
    36.4434      161.39999
    36.4539      192.00000
    36.4644      188.90001
    36.4749      218.50000
    36.4854      241.00002
    36.4960      284.89999
    36.5065      296.19998
    36.5170      310.50000
    36.5275      392.19998
    36.5381      403.39999
    36.5486      425.89999
    36.5591      490.19998
    36.5696      496.29999
    36.5801      518.80005
    36.5907      533.09998
    36.6012      551.50000
    36.6117      593.29999
    36.6222      563.70001
    36.6328      520.80005
    36.6433      519.79999
    36.6538      476.89999
    36.6643      442.19998
    36.6748      427.89999
    36.6854      419.70001
    36.6959      368.70001
    36.7064      349.29999
    36.7169      315.59998
    36.7275      278.80002
    36.7380      246.09999
    36.7485      218.50000
    36.7590      175.70000
    36.7696      191.00000
    36.7801      167.50000
    36.7906      143.00000
    36.8011      143.00000
    36.8116      119.50001
    36.8222      113.39999
    36.8327      115.40000
    36.8432       95.00000
    36.8537      106.20000
    36.8643       86.80000
    36.8748       74.60000
    36.8853       80.70000
    36.8958       72.50000
    36.9063       71.50000
    36.9169       71.50000
    36.9274       54.10000
    36.9379       68.40000
    36.9484       56.20000
    36.9590       63.30000
    36.9695       56.20000
    36.9800       43.90000
    36.9905       35.70000
    37.0010       40.80000
    37.0116       28.60000
    37.0221       35.70000
    37.0326       46.00000
    37.0431       38.80000
    37.0537       38.80000
    37.0642       48.00000
    37.0747       36.80000
    37.0852       30.60000
    37.0958       29.60000
    37.1063       33.70000
    37.1168       41.90000
    37.1273       31.70000
    37.1378       33.70000
    37.1484       29.60000
    37.1589       31.70000
    37.1694       26.60000
    37.1799       22.50000
    37.1905       33.70000
    37.2010       33.70000
    37.2115       21.40000
    37.2220       43.90000
    37.2325       32.70000
    37.2431       28.60000
    37.2536       29.60000
    37.2641       30.60000
    37.2746       26.60000
    37.2852       33.70000
    37.2957       37.80000
    37.3062       31.70000
    37.3167       34.70000
    37.3273       35.70000
    37.3378       24.50000
    37.3483       40.80000
    37.3588       27.60000
    37.3693       26.60000
    37.3799       47.00000
    37.3904       25.50000
    37.4009       31.70000
    37.4114       33.70000
    37.4220       36.80000
    37.4325       33.70000
    37.4430       23.50000
    37.4535       25.50000
    37.4640       36.80000
    37.4746       33.70000
    37.4851       25.50000
    37.4956       42.90000
    37.5061       36.80000
    37.5167       38.80000
    37.5272       41.90000
    37.5377       34.70000
    37.5482       32.70000
    37.5587       47.00000
    37.5693       31.70000
    37.5798       35.70000
    37.5903       55.10000
    37.6008       46.00000
    37.6114       40.80000
    37.6219       62.30000
    37.6324       40.80000
    37.6429       40.80000
    37.6535       50.00000
    37.6640       56.20000
    37.6745       51.10000
    37.6850       44.90000
    37.6955       57.20000
    37.7061       66.39999
    37.7166       69.40000
    37.7271       60.30000
    37.7376       80.70000
    37.7482       83.70000
    37.7587       85.80000
    37.7692       85.80000
    37.7797      134.80000
    37.7902      128.70000
    37.8008      120.50001
    37.8113      153.20000
    37.8218      192.00000
    37.8323      166.50000
    37.8429      188.90001
    37.8534      246.09999
    37.8639      274.70001
    37.8744      257.39999
    37.8849      314.50000
    37.8955      321.70001
    37.9060      355.39999
    37.9165      360.50000
    37.9270      379.89999
    37.9376      372.79999
    37.9481      401.29999
    37.9586      387.10001
    37.9691      347.19998
    37.9797      384.00000
    37.9902      278.80002
    38.0007      288.00000
    38.0112      273.70001
    38.0217      240.00002
    38.0323      201.20001
    38.0428      206.30000
    38.0533      191.00000
    38.0638      158.29999
    38.0744      131.70000
    38.0849      158.29999
    38.0954      101.10001
    38.1059      105.20000
    38.1164       95.00000
    38.1270       84.80000
    38.1375       72.50000
    38.1480       78.60000
    38.1585       69.40000
    38.1691       65.40000
    38.1796       61.30000
    38.1901       54.10000
    38.2006       56.20000
    38.2112       52.10000
    38.2217       48.00000
    38.2322       43.90000
    38.2427       51.10000
    38.2532       66.39999
    38.2638       52.10000
    38.2743       47.00000
    38.2848       42.90000
    38.2953       52.10000
    38.3059       48.00000
    38.3164       54.10000
    38.3269       49.00000
    38.3374       39.80000
    38.3479       36.80000
    38.3585       52.10000
    38.3690       46.00000
    38.3795       47.00000
    38.3900       41.90000
    38.4006       43.90000
    38.4111       33.70000
    38.4216       43.90000
    38.4321       39.80000
    38.4426       38.80000
    38.4532       31.70000
    38.4637       35.70000
    38.4742       32.70000
    38.4847       41.90000
    38.4953       22.50000
    38.5058       28.60000
    38.5163       28.60000
    38.5268       28.60000
    38.5374       27.60000
    38.5479       29.60000
    38.5584       26.60000
    38.5689       21.40000
    38.5794       22.50000
    38.5900       25.50000
    38.6005       26.60000
    38.6110       19.40000
    38.6215       24.50000
    38.6321       28.60000
    38.6426       17.40000
    38.6531       18.40000
    38.6636       19.40000
    38.6741       27.60000
    38.6847       38.80000
    38.6952       20.40000
    38.7057       18.40000
    38.7162       29.60000
    38.7268       29.60000
    38.7373       27.60000
    38.7478       19.40000
    38.7583       24.50000
    38.7689       20.40000
    38.7794       25.50000
    38.7899       24.50000
    38.8004       30.60000
    38.8109       39.80000
    38.8215       25.50000
    38.8320       29.60000
    38.8425       27.60000
    38.8530       35.70000
    38.8636       28.60000
    38.8741       24.50000
    38.8846       28.60000
    38.8951       22.50000
    38.9056       31.70000
    38.9162       31.70000
    38.9267       25.50000
    38.9372       25.50000
    38.9477       25.50000
    38.9583       31.70000
    38.9688       23.50000
    38.9793       32.70000
    38.9898       30.60000
    39.0003       29.60000
    39.0109       31.70000
    39.0214       32.70000
    39.0319       27.60000
    39.0424       36.80000
    39.0530       38.80000
    39.0635       37.80000
    39.0740       37.80000
    39.0845       31.70000
    39.0951       38.80000
    39.1056       41.90000
    39.1161       39.80000
    39.1266       55.10000
    39.1371       53.10000
    39.1477       61.30000
    39.1582       59.20000
    39.1687       56.20000
    39.1792       67.40000
    39.1898       81.70000
    39.2003       74.60000
    39.2108       91.90000
    39.2213      109.30000
    39.2318      116.40000
    39.2424      134.80000
    39.2529      127.70000
    39.2634      133.80000
    39.2739      160.30000
    39.2845      174.60001
    39.2950      170.50000
    39.3055      218.50000
    39.3160      236.89999
    39.3265      215.50000
    39.3371      234.89999
    39.3476      219.60001
    39.3581      255.30000
    39.3686      259.40002
    39.3792      250.20001
    39.3897      219.60001
    39.4002      223.70000
    39.4107      203.20001
    39.4213      171.59999
    39.4318      187.89999
    39.4423      171.59999
    39.4528      142.00000
    39.4633      164.40001
    39.4739      138.90001
    39.4844      109.30000
    39.4949      118.49999
    39.5054      123.59999
    39.5160      118.49999
    39.5265      137.89999
    39.5370      136.80000
    39.5475      171.59999
    39.5580      137.89999
    39.5686      138.90001
    39.5791      153.20000
    39.5896      161.39999
    39.6001      205.30000
    39.6107      223.70000
    39.6212      217.50000
    39.6317      228.80002
    39.6422      250.20001
    39.6528      279.80002
    39.6633      289.00000
    39.6738      344.19998
    39.6843      319.60001
    39.6948      343.10001
    39.7054      367.60001
    39.7159      387.10001
    39.7264      363.60001
    39.7369      388.10001
    39.7475      470.80002
    39.7580      408.50000
    39.7685      461.60001
    39.7790      477.89999
    39.7895      459.60001
    39.8001      465.70001
    39.8106      483.00000
    39.8211      440.19998
    39.8316      446.29999
    39.8422      417.70001
    39.8527      376.79999
    39.8632      419.70001
    39.8737      374.79999
    39.8842      308.40002
    39.8948      321.70001
    39.9053      301.29999
    39.9158      256.29999
    39.9263      229.80000
    39.9369      213.40001
    39.9474      178.70000
    39.9579      151.10001
    39.9684      176.70000
    39.9790      169.50000
    39.9895      129.70001
    40.0000      152.20000
    40.0105      100.10001
    40.0210      106.20000
    40.0316      114.40001
    40.0421       98.00000
    40.0526       70.50000
    40.0631       63.30000
    40.0737       82.70000
    40.0842       72.50000
    40.0947       56.20000
    40.1052       62.30000
    40.1157       48.00000
    40.1263       50.00000
    40.1368       52.10000
    40.1473       50.00000
    40.1578       28.60000
    40.1684       46.00000
    40.1789       53.10000
    40.1894       39.80000
    40.1999       39.80000
    40.2104       35.70000
    40.2210       37.80000
    40.2315       37.80000
    40.2420       37.80000
    40.2525       30.60000
    40.2631       34.70000
    40.2736       22.50000
    40.2841       29.60000
    40.2946       32.70000
    40.3052       23.50000
    40.3157       32.70000
    40.3262       34.70000
    40.3367       32.70000
    40.3472       21.40000
    40.3578       33.70000
    40.3683       21.40000
    40.3788       32.70000
    40.3893       24.50000
    40.3999       27.60000
    40.4104       26.60000
    40.4209       29.60000
    40.4314       23.50000
    40.4419       27.60000
    40.4525       25.50000
    40.4630       29.60000
    40.4735       29.60000
    40.4840       22.50000
    40.4946       30.60000
    40.5051       27.60000
    40.5156       27.60000
    40.5261       16.30000
    40.5367       22.50000
    40.5472       27.60000
    40.5577       20.40000
    40.5682       18.40000
    40.5787       26.60000
    40.5893       25.50000
    40.5998       21.40000
    40.6103       20.40000
    40.6208       29.60000
    40.6314       24.50000
    40.6419       29.60000
    40.6524       18.40000
    40.6629       18.40000
    40.6734       25.50000
    40.6840       35.70000
    40.6945       25.50000
    40.7050       14.30000
    40.7155       22.50000
    40.7261       10.20000
    40.7366       25.50000
    40.7471       18.40000
    40.7576       20.40000
    40.7681       19.40000
    40.7787       28.60000
    40.7892       19.40000
    40.7997       19.40000
    40.8102       22.50000
    40.8208       21.40000
    40.8313       23.50000
    40.8418       25.50000
    40.8523       22.50000
    40.8629       16.30000
    40.8734       22.50000
    40.8839       18.40000
    40.8944       32.70000
    40.9049       25.50000
    40.9155       17.40000
    40.9260       16.30000
    40.9365       21.40000
    40.9470       21.40000
    40.9576       24.50000
    40.9681       25.50000
    40.9786       17.40000
    40.9891       22.50000
    40.9996       14.30000
    41.0102       12.30000
    41.0207       26.60000
    41.0312       22.50000
    41.0417       15.30000
    41.0523       21.40000
    41.0628       15.30000
    41.0733       22.50000
    41.0838       25.50000
    41.0943       22.50000
    41.1049       21.40000
    41.1154       21.40000
    41.1259       20.40000
    41.1364       26.60000
    41.1470       26.60000
    41.1575       25.50000
    41.1680       21.40000
    41.1785       18.40000
    41.1891       10.20000
    41.1996       19.40000
    41.2101       29.60000
    41.2206       22.50000
    41.2311       21.40000
    41.2417       21.40000
    41.2522       23.50000
    41.2627       14.30000
    41.2732       22.50000
    41.2838       23.50000
    41.2943       18.40000
    41.3048       22.50000
    41.3153       23.50000
    41.3258       14.30000
    41.3364       24.50000
    41.3469       18.40000
    41.3574       18.40000
    41.3679       22.50000
    41.3785       25.50000
    41.3890       21.40000
    41.3995       17.40000
    41.4100       27.60000
    41.4206       24.50000
    41.4311       14.30000
    41.4416       17.40000
    41.4521       24.50000
    41.4626       15.30000
    41.4732       15.30000
    41.4837       20.40000
    41.4942       18.40000
    41.5047       24.50000
    41.5153       16.30000
    41.5258       18.40000
    41.5363       21.40000
    41.5468       22.50000
    41.5573       13.30000
    41.5679       26.60000
    41.5784       18.40000
    41.5889       16.30000
    41.5994       15.30000
    41.6100       18.40000
    41.6205       25.50000
    41.6310       27.60000
    41.6415       21.40000
    41.6520       19.40000
    41.6626       16.30000
    41.6731       15.30000
    41.6836       24.50000
    41.6941       23.50000
    41.7047       20.40000
    41.7152       18.40000
    41.7257       23.50000
    41.7362       17.40000
    41.7468       21.40000
    41.7573       17.40000
    41.7678       26.60000
    41.7783       23.50000
    41.7888       22.50000
    41.7994       28.60000
    41.8099       26.60000
    41.8204       29.60000
    41.8309       32.70000
    41.8415       22.50000
    41.8520       32.70000
    41.8625       28.60000
    41.8730       22.50000
    41.8835       29.60000
    41.8941       27.60000
    41.9046       31.70000
    41.9151       22.50000
    41.9256       37.80000
    41.9362       35.70000
    41.9467       42.90000
    41.9572       42.90000
    41.9677       43.90000
    41.9783       47.00000
    41.9888       43.90000
    41.9993       47.00000
    42.0098       41.90000
    42.0203       69.40000
    42.0309       51.10000
    42.0414       56.20000
    42.0519       71.50000
    42.0624       65.40000
    42.0730       73.50000
    42.0835       90.90000
    42.0940       94.00000
    42.1045      111.30000
    42.1150      115.40000
    42.1256      107.20000
    42.1361      153.20000
    42.1466      159.30000
    42.1571      202.20001
    42.1677      191.00000
    42.1782      217.50000
    42.1887      227.70000
    42.1992      250.20001
    42.2097      262.50000
    42.2203      283.89999
    42.2308      279.80002
    42.2413      317.60001
    42.2518      326.79999
    42.2624      308.40002
    42.2729      292.10001
    42.2834      308.40002
    42.2939      291.10001
    42.3045      277.80002
    42.3150      258.40002
    42.3255      233.89999
    42.3360      218.50000
    42.3465      202.20001
    42.3571      194.00000
    42.3676      161.39999
    42.3781      129.70001
    42.3886      139.90001
    42.3992      124.60001
    42.4097      108.30000
    42.4202      132.79999
    42.4307      102.10001
    42.4412       90.90000
    42.4518       90.90000
    42.4623       64.30000
    42.4728       66.39999
    42.4833       75.60000
    42.4939       55.10000
    42.5044       58.20000
    42.5149       46.00000
    42.5254       51.10000
    42.5359       49.00000
    42.5465       43.90000
    42.5570       27.60000
    42.5675       36.80000
    42.5780       37.80000
    42.5886       42.90000
    42.5991       28.60000
    42.6096       32.70000
    42.6201       40.80000
    42.6307       35.70000
    42.6412       28.60000
    42.6517       25.50000
    42.6622       22.50000
    42.6727       34.70000
    42.6833       20.40000
    42.6938       32.70000
    42.7043       23.50000
    42.7148       23.50000
    42.7254       28.60000
    42.7359       26.60000
    42.7464       27.60000
    42.7569       17.40000
    42.7674       20.40000
    42.7780       22.50000
    42.7885       22.50000
    42.7990       18.40000
    42.8095       24.50000
    42.8201       19.40000
    42.8306       26.60000
    42.8411       20.40000
    42.8516       26.60000
    42.8622       19.40000
    42.8727       27.60000
    42.8832       19.40000
    42.8937       16.30000
    42.9042       19.40000
    42.9148       20.40000
    42.9253       21.40000
    42.9358       20.40000
    42.9463       20.40000
    42.9569       22.50000
    42.9674       22.50000
    42.9779       18.40000
    42.9884       14.30000
    42.9989       17.40000
    43.0095       21.40000
    43.0200       26.60000
    43.0305       29.60000
    43.0410       24.50000
    43.0516       14.30000
    43.0621       20.40000
    43.0726       20.40000
    43.0831       28.60000
    43.0936       14.30000
    43.1042       18.40000
    43.1147       26.60000
    43.1252       18.40000
    43.1357       25.50000
    43.1463       19.40000
    43.1568       24.50000
    43.1673       20.40000
    43.1778       16.30000
    43.1884       16.30000
    43.1989       16.30000
    43.2094       20.40000
    43.2199       13.30000
    43.2304       16.30000
    43.2410       20.40000
    43.2515       18.40000
    43.2620       18.40000
    43.2725       13.30000
    43.2831       13.30000
    43.2936       13.30000
    43.3041       18.40000
    43.3146       11.20000
    43.3251       27.60000
    43.3357       29.60000
    43.3462       30.60000
    43.3567       16.30000
    43.3672       21.40000
    43.3778       16.30000
    43.3883       10.20000
    43.3988       23.50000
    43.4093       13.30000
    43.4198       26.60000
    43.4304       23.50000
    43.4409       18.40000
    43.4514       10.20000
    43.4619       10.20000
    43.4725       20.40000
    43.4830       12.30000
    43.4935       23.50000
    43.5040       22.50000
    43.5146       24.50000
    43.5251       13.30000
    43.5356       18.40000
    43.5461       23.50000
    43.5566       18.40000
    43.5672       21.40000
    43.5777       17.40000
    43.5882       15.30000
    43.5987       17.40000
    43.6093       22.50000
    43.6198       24.50000
    43.6303       21.40000
    43.6408       22.50000
    43.6513       26.60000
    43.6619       23.50000
    43.6724       21.40000
    43.6829       16.30000
    43.6934       17.40000
    43.7040       26.60000
    43.7145       24.50000
    43.7250       15.30000
    43.7355       21.40000
    43.7461       20.40000
    43.7566       15.30000
    43.7671       21.40000
    43.7776       16.30000
    43.7881       12.30000
    43.7987       17.40000
    43.8092       18.40000
    43.8197       19.40000
    43.8302       13.30000
    43.8408       22.50000
    43.8513       23.50000
    43.8618       21.40000
    43.8723       22.50000
    43.8828       21.40000
    43.8934       22.50000
    43.9039       19.40000
    43.9144       23.50000
    43.9249       16.30000
    43.9355       24.50000
    43.9460       25.50000
    43.9565       14.30000
    43.9670       24.50000
    43.9775       14.30000
    43.9881       18.40000
    43.9986       21.40000
    44.0091       18.40000
    44.0196       19.40000
    44.0302       17.40000
    44.0407       23.50000
    44.0512       25.50000
    44.0617       20.40000
    44.0723       26.60000
    44.0828       21.40000
    44.0933       21.40000
    44.1038       25.50000
    44.1143       27.60000
    44.1249       26.60000
    44.1354       27.60000
    44.1459       26.60000
    44.1564       20.40000
    44.1670       33.70000
    44.1775       35.70000
    44.1880       27.60000
    44.1985       28.60000
    44.2090       31.70000
    44.2196       21.40000
    44.2301       36.80000
    44.2406       33.70000
    44.2511       40.80000
    44.2617       35.70000
    44.2722       33.70000
    44.2827       47.00000
    44.2932       46.00000
    44.3037       39.80000
    44.3143       50.00000
    44.3248       47.00000
    44.3353       51.10000
    44.3458       47.00000
    44.3564       59.20000
    44.3669       74.60000
    44.3774       64.30000
    44.3879       89.90000
    44.3985       80.70000
    44.4090       83.70000
    44.4195       81.70000
    44.4300      108.30000
    44.4405      100.10001
    44.4511      112.30000
    44.4616      103.10000
    44.4721      115.40000
    44.4826       99.10000
    44.4932      100.10001
    44.5037      101.10001
    44.5142       81.70000
    44.5247       97.00000
    44.5352       78.60000
    44.5458       69.40000
    44.5563       72.50000
    44.5668       66.39999
    44.5773       43.90000
    44.5879       55.10000
    44.5984       44.90000
    44.6089       51.10000
    44.6194       37.80000
    44.6300       50.00000
    44.6405       32.70000
    44.6510       44.90000
    44.6615       41.90000
    44.6720       43.90000
    44.6826       22.50000
    44.6931       34.70000
    44.7036       32.70000
    44.7141       38.80000
    44.7247       38.80000
    44.7352       31.70000
    44.7457       33.70000
    44.7562       34.70000
    44.7667       34.70000
    44.7773       44.90000
    44.7878       33.70000
    44.7983       34.70000
    44.8088       36.80000
    44.8194       43.90000
    44.8299       33.70000
    44.8404       38.80000
    44.8509       42.90000
    44.8614       56.20000
    44.8720       54.10000
    44.8825       47.00000
    44.8930       62.30000
    44.9035       47.00000
    44.9141       77.60001
    44.9246       63.30000
    44.9351       67.40000
    44.9456       72.50000
    44.9562       68.40000
    44.9667       69.40000
    44.9772       99.10000
    44.9877       96.00000
    44.9982       75.60000
    45.0088       86.80000
    45.0193       92.90000
    45.0298       91.90000
    45.0403       80.70000
    45.0509       85.80000
    45.0614       83.70000
    45.0719       82.70000
    45.0824       70.50000
    45.0929       71.50000
    45.1035       63.30000
    45.1140       54.10000
    45.1245       47.00000
    45.1350       50.00000
    45.1456       43.90000
    45.1561       29.60000
    45.1666       36.80000
    45.1771       31.70000
    45.1877       58.20000
    45.1982       28.60000
    45.2087       28.60000
    45.2192       41.90000
    45.2297       27.60000
    45.2403       31.70000
    45.2508       39.80000
    45.2613       24.50000
    45.2718       24.50000
    45.2824       23.50000
    45.2929       26.60000
    45.3034       22.50000
    45.3139       31.70000
    45.3244       28.60000
    45.3350       22.50000
    45.3455       20.40000
    45.3560       30.60000
    45.3665       23.50000
    45.3771       23.50000
    45.3876       22.50000
    45.3981       18.40000
    45.4086       22.50000
    45.4191       16.30000
    45.4297       26.60000
    45.4402       21.40000
    45.4507       16.30000
    45.4612       24.50000
    45.4718       18.40000
    45.4823       17.40000
    45.4928       22.50000
    45.5033       20.40000
    45.5139       24.50000
    45.5244       21.40000
    45.5349       13.30000
    45.5454       17.40000
    45.5559       14.30000
    45.5665       24.50000
    45.5770       16.30000
    45.5875       11.20000
    45.5980       13.30000
    45.6086        9.20000
    45.6191       26.60000
    45.6296       15.30000
    45.6401       15.30000
    45.6506       20.40000
    45.6612       19.40000
    45.6717       22.50000
    45.6822       23.50000
    45.6927       14.30000
    45.7033       16.30000
    45.7138       17.40000
    45.7243       25.50000
    45.7348       22.50000
    45.7453       20.40000
    45.7559       19.40000
    45.7664       14.30000
    45.7769       21.40000
    45.7874       25.50000
    45.7980       15.30000
    45.8085       14.30000
    45.8190       19.40000
    45.8295       18.40000
    45.8401       16.30000
    45.8506       18.40000
    45.8611       11.20000
    45.8716       15.30000
    45.8821       13.30000
    45.8927       22.50000
    45.9032       12.30000
    45.9137       11.20000
    45.9242       18.40000
    45.9348       20.40000
    45.9453       18.40000
    45.9558       17.40000
    45.9663       14.30000
    45.9768       14.30000
    45.9874       21.40000
    45.9979       19.40000
    46.0084       16.30000
    46.0189       21.40000
    46.0295       14.30000
    46.0400       11.20000
    46.0505       13.30000
    46.0610       20.40000
    46.0716       15.30000
    46.0821       13.30000
    46.0926       25.50000
    46.1031       24.50000
    46.1136       25.50000
    46.1242       27.60000
    46.1347       21.40000
    46.1452       15.30000
    46.1557       24.50000
    46.1663       33.70000
    46.1768       29.60000
    46.1873       20.40000
    46.1978       18.40000
    46.2083       30.60000
    46.2189       19.40000
    46.2294       20.40000
    46.2399       36.80000
    46.2504       22.50000
    46.2610       36.80000
    46.2715       32.70000
    46.2820       37.80000
    46.2925       26.60000
    46.3030       46.00000
    46.3136       39.80000
    46.3241       32.70000
    46.3346       38.80000
    46.3451       33.70000
    46.3557       39.80000
    46.3662       59.20000
    46.3767       52.10000
    46.3872       44.90000
    46.3978       40.80000
    46.4083       60.30000
    46.4188       46.00000
    46.4293       50.00000
    46.4398       48.00000
    46.4504       39.80000
    46.4609       38.80000
    46.4714       42.90000
    46.4819       41.90000
    46.4925       39.80000
    46.5030       33.70000
    46.5135       39.80000
    46.5240       29.60000
    46.5345       28.60000
    46.5451       28.60000
    46.5556       22.50000
    46.5661       29.60000
    46.5766       23.50000
    46.5872       30.60000
    46.5977       28.60000
    46.6082       16.30000
    46.6187       17.40000
    46.6292       28.60000
    46.6398       23.50000
    46.6503       20.40000
    46.6608       17.40000
    46.6713       23.50000
    46.6819       19.40000
    46.6924       14.30000
    46.7029       17.40000
    46.7134       16.30000
    46.7240       18.40000
    46.7345       22.50000
    46.7450       11.20000
    46.7555       20.40000
    46.7660       23.50000
    46.7766       28.60000
    46.7871       20.40000
    46.7976       22.50000
    46.8081       18.40000
    46.8187       23.50000
    46.8292       24.50000
    46.8397       18.40000
    46.8502       15.30000
    46.8607       20.40000
    46.8713       28.60000
    46.8818       22.50000
    46.8923       18.40000
    46.9028       25.50000
    46.9134       22.50000
    46.9239       19.40000
    46.9344       14.30000
    46.9449       19.40000
    46.9555       25.50000
    46.9660       25.50000
    46.9765       19.40000
    46.9870       14.30000
    46.9975       14.30000
    47.0081       15.30000
    47.0186       20.40000
    47.0291       22.50000
    47.0396       20.40000
    47.0502       21.40000
    47.0607       22.50000
    47.0712       13.30000
    47.0817       19.40000
    47.0922       11.20000
    47.1028       20.40000
    47.1133       20.40000
    47.1238       12.30000
    47.1343       14.30000
    47.1449       19.40000
    47.1554       27.60000
    47.1659       20.40000
    47.1764       10.20000
    47.1869       24.50000
    47.1975       23.50000
    47.2080       13.30000
    47.2185       21.40000
    47.2290       19.40000
    47.2396       15.30000
    47.2501       22.50000
    47.2606       16.30000
    47.2711       14.30000
    47.2817       23.50000
    47.2922       13.30000
    47.3027       13.30000
    47.3132       19.40000
    47.3237       24.50000
    47.3343       11.20000
    47.3448       18.40000
    47.3553       12.30000
    47.3658       15.30000
    47.3764       19.40000
    47.3869       20.40000
    47.3974       16.30000
    47.4079       17.40000
    47.4184       15.30000
    47.4290       20.40000
    47.4395       20.40000
    47.4500       17.40000
    47.4605       12.30000
    47.4711       10.20000
    47.4816       10.20000
    47.4921       22.50000
    47.5026        7.10000
    47.5131       20.40000
    47.5237       16.30000
    47.5342       13.30000
    47.5447       20.40000
    47.5552       16.30000
    47.5658       18.40000
    47.5763       19.40000
    47.5868       20.40000
    47.5973       15.30000
    47.6079       27.60000
    47.6184       24.50000
    47.6289       25.50000
    47.6394       15.30000
    47.6499       22.50000
    47.6605       22.50000
    47.6710       20.40000
    47.6815       16.30000
    47.6920       21.40000
    47.7026       23.50000
    47.7131       21.40000
    47.7236       15.30000
    47.7341       26.60000
    47.7446       17.40000
    47.7552       15.30000
    47.7657       12.30000
    47.7762       17.40000
    47.7867       15.30000
    47.7973       25.50000
    47.8078       10.20000
    47.8183       11.20000
    47.8288       30.60000
    47.8394       26.60000
    47.8499       19.40000
    47.8604       26.60000
    47.8709       10.20000
    47.8814       21.40000
    47.8920       18.40000
    47.9025       19.40000
    47.9130       23.50000
    47.9235       34.70000
    47.9341       19.40000
    47.9446       32.70000
    47.9551       19.40000
    47.9656       21.40000
    47.9761       24.50000
    47.9867       25.50000
    47.9972       21.40000
    48.0077       34.70000
    48.0182       22.50000
    48.0288       26.60000
    48.0393       42.90000
    48.0498       28.60000
    48.0603       33.70000
    48.0708       31.70000
    48.0814       61.30000
    48.0919       37.80000
    48.1024       32.70000
    48.1129       33.70000
    48.1235       43.90000
    48.1340       42.90000
    48.1445       24.50000
    48.1550       24.50000
    48.1656       26.60000
    48.1761       31.70000
    48.1866       32.70000
    48.1971       30.60000
    48.2076       35.70000
    48.2182       25.50000
    48.2287       19.40000
    48.2392       24.50000
    48.2497       31.70000
    48.2603       26.60000
    48.2708       24.50000
    48.2813       26.60000
    48.2918       27.60000
    48.3023       16.30000
    48.3129       24.50000
    48.3234       28.60000
    48.3339       32.70000
    48.3444       28.60000
    48.3550       18.40000
    48.3655       22.50000
    48.3760       18.40000
    48.3865       26.60000
    48.3970       17.40000
    48.4076       20.40000
    48.4181       15.30000
    48.4286       16.30000
    48.4391       19.40000
    48.4497       16.30000
    48.4602       18.40000
    48.4707       20.40000
    48.4812       20.40000
    48.4918       17.40000
    48.5023       19.40000
    48.5128       20.40000
    48.5233       16.30000
    48.5338       21.40000
    48.5444       12.30000
    48.5549       12.30000
    48.5654       15.30000
    48.5759       19.40000
    48.5865       17.40000
    48.5970       28.60000
    48.6075       17.40000
    48.6180       24.50000
    48.6285       17.40000
    48.6391       26.60000
    48.6496       22.50000
    48.6601       13.30000
    48.6706       24.50000
    48.6812       21.40000
    48.6917       19.40000
    48.7022       23.50000
    48.7127       27.60000
    48.7233       29.60000
    48.7338       25.50000
    48.7443       22.50000
    48.7548       28.60000
    48.7653       20.40000
    48.7759       25.50000
    48.7864       28.60000
    48.7969       29.60000
    48.8074       13.30000
    48.8180       26.60000
    48.8285       38.80000
    48.8390       33.70000
    48.8495       31.70000
    48.8600       30.60000
    48.8706       35.70000
    48.8811       26.60000
    48.8916       37.80000
    48.9021       34.70000
    48.9127       26.60000
    48.9232       34.70000
    48.9337       36.80000
    48.9442       30.60000
    48.9547       32.70000
    48.9653       39.80000
    48.9758       34.70000
    48.9863       32.70000
    48.9968       38.80000
    49.0074       49.00000
    49.0179       49.00000
    49.0284       58.20000
    49.0389       51.10000
    49.0495       56.20000
    49.0600       55.10000
    49.0705       65.40000
    49.0810       57.20000
    49.0915       69.40000
    49.1021       69.40000
    49.1126       75.60000
    49.1231       84.80000
    49.1336       91.90000
    49.1442       98.00000
    49.1547       96.00000
    49.1652      109.30000
    49.1757      120.50001
    49.1862      132.79999
    49.1968      133.80000
    49.2073      138.90001
    49.2178      156.30000
    49.2283      174.60001
    49.2389      172.59999
    49.2494      174.60001
    49.2599      174.60001
    49.2704      216.50000
    49.2810      197.09999
    49.2915      205.30000
    49.3020      202.20001
    49.3125      180.80000
    49.3230      177.70000
    49.3336      169.50000
    49.3441      160.30000
    49.3546      158.29999
    49.3651      147.09999
    49.3757      124.60001
    49.3862      126.60001
    49.3967      131.70000
    49.4072      112.30000
    49.4177      119.50001
    49.4283       99.10000
    49.4388      102.10001
    49.4493       97.00000
    49.4598       85.80000
    49.4704       86.80000
    49.4809       92.90000
    49.4914       63.30000
    49.5019       58.20000
    49.5124       79.70000
    49.5230       61.30000
    49.5335       62.30000
    49.5440       72.50000
    49.5545       67.40000
    49.5651       69.40000
    49.5756       53.10000
    49.5861       63.30000
    49.5966       51.10000
    49.6072       51.10000
    49.6177       69.40000
    49.6282       51.10000
    49.6387       41.90000
    49.6492       39.80000
    49.6598       32.70000
    49.6703       39.80000
    49.6808       52.10000
    49.6913       33.70000
    49.7019       43.90000
    49.7124       47.00000
    49.7229       44.90000
    49.7334       39.80000
    49.7439       29.60000
    49.7545       33.70000
    49.7650       27.60000
    49.7755       28.60000
    49.7860       31.70000
    49.7966       33.70000
    49.8071       24.50000
    49.8176       36.80000
    49.8281       43.90000
    49.8386       33.70000
    49.8492       43.90000
    49.8597       38.80000
    49.8702       41.90000
    49.8807       39.80000
    49.8913       38.80000
    49.9018       41.90000
    49.9123       29.60000
    49.9228       34.70000
    49.9334       44.90000
    49.9439       41.90000
    49.9544       46.00000
    49.9649       52.10000
    49.9754       31.70000
    49.9860       65.40000
    49.9965       43.90000
    50.0070       52.10000
    50.0175       55.10000
    50.0281       61.30000
    50.0386       63.30000
    50.0491       86.80000
    50.0596       78.60000
    50.0701       81.70000
    50.0807       80.70000
    50.0912       89.90000
    50.1017      105.20000
    50.1122       76.60000
    50.1228       97.00000
    50.1333       99.10000
    50.1438       97.00000
    50.1543      101.10001
    50.1649       81.70000
    50.1754      102.10001
    50.1859       97.00000
    50.1964      120.50001
    50.2069      133.80000
    50.2175      120.50001
    50.2280      130.70000
    50.2385      110.30000
    50.2490      138.90001
    50.2596      125.60001
    50.2701      129.70001
    50.2806      134.80000
    50.2911      161.39999
    50.3016      183.80000
    50.3122      193.00000
    50.3227      197.09999
    50.3332      205.30000
    50.3437      212.40001
    50.3543      209.40001
    50.3648      197.09999
    50.3753      212.40001
    50.3858      246.09999
    50.3963      213.40001
    50.4069      224.70000
    50.4174      223.70000
    50.4279      219.60001
    50.4384      246.09999
    50.4490      200.20001
    50.4595      226.70000
    50.4700      215.50000
    50.4805      203.20001
    50.4911      188.90001
    50.5016      202.20001
    50.5121      201.20001
    50.5226      197.09999
    50.5331      178.70000
    50.5437      168.50000
    50.5542      163.39999
    50.5647      188.90001
    50.5752      185.89999
    50.5858      185.89999
    50.5963      151.10001
    50.6068      162.39999
    50.6173      172.59999
    50.6278      127.70000
    50.6384      150.10001
    50.6489      128.70000
    50.6594      155.20001
    50.6699      119.50001
    50.6805      112.30000
    50.6910      119.50001
    50.7015       95.00000
    50.7120       86.80000
    50.7225       62.30000
    50.7331       89.90000
    50.7436       62.30000
    50.7541       68.40000
    50.7646       71.50000
    50.7752       72.50000
    50.7857       58.20000
    50.7962       62.30000
    50.8067       59.20000
    50.8173       58.20000
    50.8278       57.20000
    50.8383       49.00000
    50.8488       34.70000
    50.8593       32.70000
    50.8699       33.70000
    50.8804       52.10000
    50.8909       38.80000
    50.9014       35.70000
    50.9120       33.70000
    50.9225       36.80000
    50.9330       31.70000
    50.9435       29.60000
    50.9540       30.60000
    50.9646       29.60000
    50.9751       36.80000
    50.9856       31.70000
    50.9961       28.60000
    51.0067       25.50000
    51.0172       24.50000
    51.0277       28.60000
    51.0382       26.60000
    51.0488       29.60000
    51.0593       35.70000
    51.0698       28.60000
    51.0803       21.40000
    51.0908       36.80000
    51.1014       26.60000
    51.1119       28.60000
    51.1224       24.50000
    51.1329       17.40000
    51.1435       24.50000
    51.1540       33.70000
    51.1645       27.60000
    51.1750       19.40000
    51.1855       25.50000
    51.1961       11.20000
    51.2066       16.30000
    51.2171       15.30000
    51.2276       22.50000
    51.2382       24.50000
    51.2487       24.50000
    51.2592       25.50000
    51.2697       21.40000
    51.2802       21.40000
    51.2908       24.50000
    51.3013       24.50000
    51.3118       19.40000
    51.3223       18.40000
    51.3329       23.50000
    51.3434       19.40000
    51.3539       19.40000
    51.3644       11.20000
    51.3750       21.40000
    51.3855       24.50000
    51.3960       26.60000
    51.4065       24.50000
    51.4170       21.40000
    51.4276       17.40000
    51.4381       20.40000
    51.4486       18.40000
    51.4591       21.40000
    51.4697       21.40000
    51.4802       25.50000
    51.4907       10.20000
    51.5012       26.60000
    51.5117       24.50000
    51.5223       25.50000
    51.5328       26.60000
    51.5433       20.40000
    51.5538       21.40000
    51.5644       25.50000
    51.5749       15.30000
    51.5854       16.30000
    51.5959       24.50000
    51.6064       23.50000
    51.6170       28.60000
    51.6275        9.20000
    51.6380       19.40000
    51.6485       26.60000
    51.6591       25.50000
    51.6696       28.60000
    51.6801       26.60000
    51.6906       29.60000
    51.7012       31.70000
    51.7117       19.40000
    51.7222       17.40000
    51.7327       14.30000
    51.7432       16.30000
    51.7538       31.70000
    51.7643       25.50000
    51.7748       25.50000
    51.7853       18.40000
    51.7959       22.50000
    51.8064       17.40000
    51.8169       28.60000
    51.8274       33.70000
    51.8379       29.60000
    51.8485       28.60000
    51.8590       20.40000
    51.8695       27.60000
    51.8800       24.50000
    51.8906       17.40000
    51.9011       33.70000
    51.9116       33.70000
    51.9221       17.40000
    51.9327       31.70000
    51.9432       26.60000
    51.9537       28.60000
    51.9642       28.60000
    51.9747       25.50000
    51.9853       31.70000
    51.9958       28.60000
    52.0063       30.60000
    52.0168       24.50000
    52.0274       49.00000
    52.0379       35.70000
    52.0484       35.70000
    52.0589       34.70000
    52.0694       50.00000
    52.0800       37.80000
    52.0905       49.00000
    52.1010       41.90000
    52.1115       32.70000
    52.1221       29.60000
    52.1326       40.80000
    52.1431       41.90000
    52.1536       51.10000
    52.1641       42.90000
    52.1747       62.30000
    52.1852       58.20000
    52.1957       53.10000
    52.2062       58.20000
    52.2168       66.39999
    52.2273       81.70000
    52.2378       77.60001
    52.2483       75.60000
    52.2589       72.50000
    52.2694       67.40000
    52.2799       87.80000
    52.2904       94.00000
    52.3009       97.00000
    52.3115       90.90000
    52.3220      107.20000
    52.3325      109.30000
    52.3430      129.70001
    52.3536      118.49999
    52.3641      144.00000
    52.3746      192.00000
    52.3851      162.39999
    52.3956      197.09999
    52.4062      197.09999
    52.4167      200.20001
    52.4272      246.09999
    52.4377      267.60001
    52.4483      272.70001
    52.4588      319.60001
    52.4693      331.89999
    52.4798      378.89999
    52.4904      397.30002
    52.5009      419.70001
    52.5114      513.70001
    52.5219      472.80002
    52.5324      514.70001
    52.5430      532.10004
    52.5535      544.29999
    52.5640      596.40002
    52.5745      556.59998
    52.5851      544.29999
    52.5956      569.89996
    52.6061      586.20001
    52.6166      501.39999
    52.6271      493.30002
    52.6377      492.19998
    52.6482      472.80002
    52.6587      457.49997
    52.6692      425.89999
    52.6798      429.89996
    52.6903      364.59998
    52.7008      380.89999
    52.7113      353.29999
    52.7218      336.00000
    52.7324      337.00000
    52.7429      287.00000
    52.7534      324.79999
    52.7639      287.00000
    52.7745      267.60001
    52.7850      248.20001
    52.7955      262.50000
    52.8060      215.50000
    52.8166      212.40001
    52.8271      195.09999
    52.8376      211.40001
    52.8481      188.90001
    52.8586      184.80000
    52.8692      171.59999
    52.8797      170.50000
    52.8902      162.39999
    52.9007      143.00000
    52.9113      130.70000
    52.9218      121.50000
    52.9323      138.90001
    52.9428      107.20000
    52.9533      114.40001
    52.9639       96.00000
    52.9744       94.00000
    52.9849       83.70000
    52.9954       91.90000
    53.0060       91.90000
    53.0165       71.50000
    53.0270       67.40000
    53.0375       69.40000
    53.0480       68.40000
    53.0586       66.39999
    53.0691       67.40000
    53.0796       57.20000
    53.0901       67.40000
    53.1007       66.39999
    53.1112       65.40000
    53.1217       74.60000
    53.1322       56.20000
    53.1428       54.10000
    53.1533       63.30000
    53.1638       57.20000
    53.1743       59.20000
    53.1848       46.00000
    53.1954       58.20000
    53.2059       59.20000
    53.2164       57.20000
    53.2269       54.10000
    53.2375       59.20000
    53.2480       36.80000
    53.2585       54.10000
    53.2690       44.90000
    53.2795       37.80000
    53.2901       52.10000
    53.3006       29.60000
    53.3111       49.00000
    53.3216       36.80000
    53.3322       47.00000
    53.3427       44.90000
    53.3532       33.70000
    53.3637       37.80000
    53.3743       35.70000
    53.3848       29.60000
    53.3953       29.60000
    53.4058       30.60000
    53.4163       25.50000
    53.4269       31.70000
    53.4374       32.70000
    53.4479       26.60000
    53.4584       26.60000
    53.4690       31.70000
    53.4795       38.80000
    53.4900       25.50000
    53.5005       29.60000
    53.5110       33.70000
    53.5216       23.50000
    53.5321       28.60000
    53.5426       33.70000
    53.5531       22.50000
    53.5637       22.50000
    53.5742       19.40000
    53.5847       15.30000
    53.5952       15.30000
    53.6057       21.40000
    53.6163       18.40000
    53.6268       23.50000
    53.6373       22.50000
    53.6478       26.60000
    53.6584       21.40000
    53.6689       16.30000
    53.6794       21.40000
    53.6899       28.60000
    53.7005       29.60000
    53.7110       23.50000
    53.7215       19.40000
    53.7320       26.60000
    53.7425       26.60000
    53.7531       28.60000
    53.7636       18.40000
    53.7741       22.50000
    53.7846       26.60000
    53.7952       27.60000
    53.8057       24.50000
    53.8162       20.40000
    53.8267       18.40000
    53.8372       24.50000
    53.8478       18.40000
    53.8583       13.30000
    53.8688       21.40000
    53.8793       32.70000
    53.8899       29.60000
    53.9004       18.40000
    53.9109       28.60000
    53.9214       24.50000
    53.9319       23.50000
    53.9425       30.60000
    53.9530       17.40000
    53.9635       21.40000
    53.9740       23.50000
    53.9846       31.70000
    53.9951       19.40000
    54.0056       15.30000
    54.0161       16.30000
    54.0267       20.40000
    54.0372       22.50000
    54.0477       20.40000
    54.0582       20.40000
    54.0687       32.70000
    54.0793       24.50000
    54.0898       15.30000
    54.1003       24.50000
    54.1108       24.50000
    54.1214       25.50000
    54.1319       22.50000
    54.1424       10.20000
    54.1529       13.30000
    54.1634       18.40000
    54.1740       21.40000
    54.1845       15.30000
    54.1950       23.50000
    54.2055       24.50000
    54.2161       22.50000
    54.2266       27.60000
    54.2371       26.60000
    54.2476       23.50000
    54.2582       15.30000
    54.2687       16.30000
    54.2792       29.60000
    54.2897       28.60000
    54.3002       19.40000
    54.3108       18.40000
    54.3213       15.30000
    54.3318       27.60000
    54.3423       26.60000
    54.3529       21.40000
    54.3634       18.40000
    54.3739       20.40000
    54.3844       22.50000
    54.3949       33.70000
    54.4055       18.40000
    54.4160       20.40000
    54.4265       26.60000
    54.4370       26.60000
    54.4476       30.60000
    54.4581       25.50000
    54.4686       34.70000
    54.4791       27.60000
    54.4896       29.60000
    54.5002       28.60000
    54.5107       30.60000
    54.5212       34.70000
    54.5317       27.60000
    54.5423       33.70000
    54.5528       27.60000
    54.5633       24.50000
    54.5738       36.80000
    54.5844       35.70000
    54.5949       40.80000
    54.6054       25.50000
    54.6159       31.70000
    54.6264       42.90000
    54.6370       38.80000
    54.6475       43.90000
    54.6580       18.40000
    54.6685       31.70000
    54.6791       44.90000
    54.6896       44.90000
    54.7001       32.70000
    54.7106       44.90000
    54.7211       54.10000
    54.7317       52.10000
    54.7422       46.00000
    54.7527       50.00000
    54.7632       68.40000
    54.7738       52.10000
    54.7843       61.30000
    54.7948       58.20000
    54.8053       80.70000
    54.8158       75.60000
    54.8264       96.00000
    54.8369       84.80000
    54.8474       90.90000
    54.8579      147.09999
    54.8685      118.49999
    54.8790      112.30000
    54.8895      134.80000
    54.9000      130.70000
    54.9106      194.00000
    54.9211      181.80000
    54.9316      188.90001
    54.9421      195.09999
    54.9526      216.50000
    54.9632      194.00000
    54.9737      224.70000
    54.9842      221.60001
    54.9947      231.80000
    55.0053      219.60001
    55.0158      246.09999
    55.0263      222.60001
    55.0368      236.89999
    55.0473      205.30000
    55.0579      218.50000
    55.0684      230.80000
    55.0789      192.00000
    55.0894      183.80000
    55.1000      177.70000
    55.1105      179.70001
    55.1210      181.80000
    55.1315      144.00000
    55.1421      154.20001
    55.1526      136.80000
    55.1631      126.60001
    55.1736      116.40000
    55.1841      116.40000
    55.1947      100.10001
    55.2052       97.00000
    55.2157      109.30000
    55.2262       94.00000
    55.2368       95.00000
    55.2473      113.39999
    55.2578       83.70000
    55.2683      112.30000
    55.2788       90.90000
    55.2894      104.20000
    55.2999      103.10000
    55.3104      109.30000
    55.3209       81.70000
    55.3315      110.30000
    55.3420      113.39999
    55.3525      121.50000
    55.3630      148.09999
    55.3735      118.49999
    55.3841      143.00000
    55.3946      138.90001
    55.4051      182.79999
    55.4156      184.80000
    55.4262      211.40001
    55.4367      228.80002
    55.4472      258.40002
    55.4577      257.39999
    55.4683      312.50000
    55.4788      295.10001
    55.4893      307.39999
    55.4998      274.70001
    55.5103      287.00000
    55.5209      310.50000
    55.5314      292.10001
    55.5419      306.39999
    55.5524      271.70001
    55.5630      274.70001
    55.5735      261.39999
    55.5840      235.89999
    55.5945      233.89999
    55.6050      216.50000
    55.6156      178.70000
    55.6261      180.80000
    55.6366      147.09999
    55.6471      151.10001
    55.6577      131.70000
    55.6682      148.09999
    55.6787      139.90001
    55.6892      125.60001
    55.6998      117.40000
    55.7103      116.40000
    55.7208       92.90000
    55.7313       85.80000
    55.7418       86.80000
    55.7524       66.39999
    55.7629       73.50000
    55.7734       71.50000
    55.7839       64.30000
    55.7945       79.70000
    55.8050       63.30000
    55.8155       61.30000
    55.8260       68.40000
    55.8365       56.20000
    55.8471       63.30000
    55.8576       42.90000
    55.8681       37.80000
    55.8786       41.90000
    55.8892       39.80000
    55.8997       51.10000
    55.9102       40.80000
    55.9207       44.90000
    55.9312       43.90000
    55.9418       49.00000
    55.9523       25.50000
    55.9628       37.80000
    55.9733       33.70000
    55.9839       31.70000
    55.9944       35.70000
    56.0049       32.70000
    56.0154       30.60000
    56.0260       38.80000
    56.0365       26.60000
    56.0470       36.80000
    56.0575       38.80000
    56.0680       30.60000
    56.0786       36.80000
    56.0891       31.70000
    56.0996       31.70000
    56.1101       37.80000
    56.1207       39.80000
    56.1312       28.60000
    56.1417       25.50000
    56.1522       36.80000
    56.1627       26.60000
    56.1733       27.60000
    56.1838       35.70000
    56.1943       30.60000
    56.2048       27.60000
    56.2154       33.70000
    56.2259       47.00000
    56.2364       35.70000
    56.2469       42.90000
    56.2574       34.70000
    56.2680       34.70000
    56.2785       32.70000
    56.2890       31.70000
    56.2995       46.00000
    56.3101       34.70000
    56.3206       35.70000
    56.3311       52.10000
    56.3416       51.10000
    56.3522       58.20000
    56.3627       53.10000
    56.3732       50.00000
    56.3837       55.10000
    56.3942       58.20000
    56.4048       58.20000
    56.4153       50.00000
    56.4258       67.40000
    56.4363       72.50000
    56.4469       80.70000
    56.4574       69.40000
    56.4679       84.80000
    56.4784       83.70000
    56.4889      109.30000
    56.4995       89.90000
    56.5100      114.40001
    56.5205       88.80000
    56.5310      128.70000
    56.5416      150.10001
    56.5521      110.30000
    56.5626      134.80000
    56.5731      155.20001
    56.5837      168.50000
    56.5942      167.50000
    56.6047      174.60001
    56.6152      192.00000
    56.6257      218.50000
    56.6363      221.60001
    56.6468      242.00000
    56.6573      243.10001
    56.6678      269.60001
    56.6784      300.20001
    56.6889      261.39999
    56.6994      302.29999
    56.7099      279.80002
    56.7204      264.50000
    56.7310      339.10001
    56.7415      318.60001
    56.7520      283.89999
    56.7625      271.70001
    56.7731      249.20001
    56.7836      251.20001
    56.7941      285.89999
    56.8046      251.20001
    56.8151      227.70000
    56.8257      207.29999
    56.8362      204.20001
    56.8467      221.60001
    56.8572      190.00000
    56.8678      165.40001
    56.8783      170.50000
    56.8888      154.20001
    56.8993      149.10001
    56.9099      138.90001
    56.9204      127.70000
    56.9309      116.40000
    56.9414      116.40000
    56.9519      100.10001
    56.9625       88.80000
    56.9730       95.00000
    56.9835       67.40000
    56.9940       56.20000
    57.0046       54.10000
    57.0151       63.30000
    57.0256       63.30000
    57.0361       69.40000
    57.0466       64.30000
    57.0572       53.10000
    57.0677       55.10000
    57.0782       37.80000
    57.0887       37.80000
    57.0993       50.00000
    57.1098       62.30000
    57.1203       43.90000
    57.1308       36.80000
    57.1413       36.80000
    57.1519       42.90000
    57.1624       50.00000
    57.1729       24.50000
    57.1834       34.70000
    57.1940       42.90000
    57.2045       36.80000
    57.2150       28.60000
    57.2255       29.60000
    57.2361       25.50000
    57.2466       31.70000
    57.2571       26.60000
    57.2676       35.70000
    57.2781       35.70000
    57.2887       40.80000
    57.2992       40.80000
    57.3097       24.50000
    57.3202       34.70000
    57.3308       27.60000
    57.3413       26.60000
    57.3518       27.60000
    57.3623       32.70000
    57.3728       26.60000
    57.3834       35.70000
    57.3939       33.70000
    57.4044       33.70000
    57.4149       35.70000
    57.4255       27.60000
    57.4360       28.60000
    57.4465       41.90000
    57.4570       36.80000
    57.4676       27.60000
    57.4781       37.80000
    57.4886       40.80000
    57.4991       41.90000
    57.5096       47.00000
    57.5202       41.90000
    57.5307       54.10000
    57.5412       62.30000
    57.5517       54.10000
    57.5623       53.10000
    57.5728       51.10000
    57.5833       70.50000
    57.5938       57.20000
    57.6043       55.10000
    57.6149       57.20000
    57.6254       51.10000
    57.6359       65.40000
    57.6464       55.10000
    57.6570       54.10000
    57.6675       41.90000
    57.6780       44.90000
    57.6885       48.00000
    57.6990       33.70000
    57.7096       38.80000
    57.7201       44.90000
    57.7306       36.80000
    57.7411       46.00000
    57.7517       40.80000
    57.7622       48.00000
    57.7727       32.70000
    57.7832       37.80000
    57.7938       52.10000
    57.8043       42.90000
    57.8148       38.80000
    57.8253       18.40000
    57.8358       43.90000
    57.8464       35.70000
    57.8569       30.60000
    57.8674       26.60000
    57.8779       33.70000
    57.8885       41.90000
    57.8990       27.60000
    57.9095       31.70000
    57.9200       32.70000
    57.9305       35.70000
    57.9411       36.80000
    57.9516       29.60000
    57.9621       46.00000
    57.9726       37.80000
    57.9832       29.60000
    57.9937       37.80000
    58.0042       46.00000
    58.0147       40.80000
    58.0252       34.70000
    58.0358       37.80000
    58.0463       34.70000
    58.0568       48.00000
    58.0673       52.10000
    58.0779       51.10000
    58.0884       60.30000
    58.0989       46.00000
    58.1094       49.00000
    58.1200       57.20000
    58.1305       67.40000
    58.1410       64.30000
    58.1515       69.40000
    58.1620       82.70000
    58.1726       77.60001
    58.1831       77.60001
    58.1936       87.80000
    58.2041       99.10000
    58.2147       82.70000
    58.2252       92.90000
    58.2357      112.30000
    58.2462      109.30000
    58.2567      123.59999
    58.2673      151.10001
    58.2778      140.90001
    58.2883      153.20000
    58.2988      160.30000
    58.3094      160.30000
    58.3199      160.30000
    58.3304      176.70000
    58.3409      179.70001
    58.3515      174.60001
    58.3620      158.29999
    58.3725      166.50000
    58.3830      175.70000
    58.3935      190.00000
    58.4041      152.20000
    58.4146      143.00000
    58.4251      155.20001
    58.4356      157.29999
    58.4462      127.70000
    58.4567      142.00000
    58.4672      128.70000
    58.4777      122.50000
    58.4882       98.00000
    58.4988      103.10000
    58.5093      104.20000
    58.5198       94.00000
    58.5303       73.50000
    58.5409       71.50000
    58.5514       75.60000
    58.5619       65.40000
    58.5724       61.30000
    58.5829       62.30000
    58.5935       51.10000
    58.6040       53.10000
    58.6145       51.10000
    58.6250       58.20000
    58.6356       53.10000
    58.6461       43.90000
    58.6566       25.50000
    58.6671       41.90000
    58.6777       48.00000
    58.6882       32.70000
    58.6987       34.70000
    58.7092       31.70000
    58.7197       36.80000
    58.7303       22.50000
    58.7408       26.60000
    58.7513       20.40000
    58.7618       22.50000
    58.7724       32.70000
    58.7829       26.60000
    58.7934       30.60000
    58.8039       17.40000
    58.8144       26.60000
    58.8250       25.50000
    58.8355       30.60000
    58.8460       26.60000
    58.8565       16.30000
    58.8671       25.50000
    58.8776       21.40000
    58.8881       32.70000
    58.8986       24.50000
    58.9091       19.40000
    58.9197       17.40000
    58.9302       17.40000
    58.9407       24.50000
    58.9512       23.50000
    58.9618       21.40000
    58.9723       25.50000
    58.9828       24.50000
    58.9933       22.50000
    59.0039       19.40000
    59.0144       17.40000
    59.0249       22.50000
    59.0354       23.50000
    59.0459       19.40000
    59.0565       25.50000
    59.0670       28.60000
    59.0775       22.50000
    59.0880       24.50000
    59.0986       26.60000
    59.1091       27.60000
    59.1196       18.40000
    59.1301       26.60000
    59.1406       19.40000
    59.1512       21.40000
    59.1617       21.40000
    59.1722       25.50000
    59.1827       22.50000
    59.1933       20.40000
    59.2038       32.70000
    59.2143       24.50000
    59.2248       24.50000
    59.2354       24.50000
    59.2459       26.60000
    59.2564       21.40000
    59.2669       19.40000
    59.2774       14.30000
    59.2880       15.30000
    59.2985       17.40000
    59.3090       32.70000
    59.3195       20.40000
    59.3301       14.30000
    59.3406       15.30000
    59.3511       16.30000
    59.3616       22.50000
    59.3721       18.40000
    59.3827       18.40000
    59.3932       21.40000
    59.4037       22.50000
    59.4142       22.50000
    59.4248       22.50000
    59.4353       17.40000
    59.4458       18.40000
    59.4563       15.30000
    59.4668       18.40000
    59.4774       18.40000
    59.4879       24.50000
    59.4984       17.40000
    59.5089       17.40000
    59.5195       26.60000
    59.5300       22.50000
    59.5405       18.40000
    59.5510       19.40000
    59.5616       15.30000
    59.5721       19.40000
    59.5826       20.40000
    59.5931       24.50000
    59.6036       23.50000
    59.6142       28.60000
    59.6247       20.40000
    59.6352       21.40000
    59.6457       28.60000
    59.6563       24.50000
    59.6668       21.40000
    59.6773       19.40000
    59.6878       27.60000
    59.6983       31.70000
    59.7089       26.60000
    59.7194       20.40000
    59.7299       22.50000
    59.7404       20.40000
    59.7510       22.50000
    59.7615       24.50000
    59.7720       27.60000
    59.7825       21.40000
    59.7931       21.40000
    59.8036       17.40000
    59.8141       17.40000
    59.8246       24.50000
    59.8351       26.60000
    59.8457       15.30000
    59.8562       17.40000
    59.8667       20.40000
    59.8772       13.30000
    59.8878       16.30000
    59.8983       27.60000
    59.9088       18.40000
    59.9193       21.40000
    59.9298       22.50000
    59.9404       17.40000
    59.9509       19.40000
    59.9614       20.40000
    59.9719       21.40000
    59.9825       18.40000
    59.9930       20.40000
    60.0035       14.30000
    60.0140       28.60000
    60.0245       13.30000
    60.0351       19.40000
    60.0456       23.50000
    60.0561       13.30000
    60.0666       27.60000
    60.0772       17.40000
    60.0877       26.60000
    60.0982       12.30000
    60.1087       21.40000
    60.1193       21.40000
    60.1298       18.40000
    60.1403       23.50000
    60.1508       18.40000
    60.1613       24.50000
    60.1719       16.30000
    60.1824       19.40000
    60.1929       20.40000
    60.2034       19.40000
    60.2140       23.50000
    60.2245       12.30000
    60.2350       22.50000
    60.2455       30.60000
    60.2560       17.40000
    60.2666       16.30000
    60.2771       30.60000
    60.2876       18.40000
    60.2981       13.30000
    60.3087       20.40000
    60.3192       15.30000
    60.3297       24.50000
    60.3402       21.40000
    60.3507       22.50000
    60.3613       12.30000
    60.3718       18.40000
    60.3823       14.30000
    60.3928       18.40000
    60.4034       17.40000
    60.4139       10.20000
    60.4244       20.40000
    60.4349       13.30000
    60.4455       21.40000
    60.4560       15.30000
    60.4665       16.30000
    60.4770       17.40000
    60.4875       17.40000
    60.4981       14.30000
    60.5086       14.30000
    60.5191       23.50000
    60.5296       24.50000
    60.5402       21.40000
    60.5507       16.30000
    60.5612       14.30000
    60.5717       23.50000
    60.5822       17.40000
    60.5928       26.60000
    60.6033       22.50000
    60.6138       13.30000
    60.6243       21.40000
    60.6349       16.30000
    60.6454       22.50000
    60.6559       10.20000
    60.6664       21.40000
    60.6770       20.40000
    60.6875       19.40000
    60.6980       29.60000
    60.7085       24.50000
    60.7190       20.40000
    60.7296       14.30000
    60.7401       27.60000
    60.7506       19.40000
    60.7611       18.40000
    60.7717       14.30000
    60.7822       19.40000
    60.7927       22.50000
    60.8032       17.40000
    60.8137       17.40000
    60.8243       26.60000
    60.8348       19.40000
    60.8453        9.20000
    60.8558       18.40000
    60.8664       15.30000
    60.8769       21.40000
    60.8874       21.40000
    60.8979       27.60000
    60.9084       22.50000
    60.9190       16.30000
    60.9295       20.40000
    60.9400       20.40000
    60.9505       25.50000
    60.9611       21.40000
    60.9716       17.40000
    60.9821       21.40000
    60.9926       29.60000
    61.0032       31.70000
    61.0137       19.40000
    61.0242       24.50000
    61.0347       20.40000
    61.0452       26.60000
    61.0558       27.60000
    61.0663       23.50000
    61.0768       26.60000
    61.0873       20.40000
    61.0979       13.30000
    61.1084       28.60000
    61.1189       22.50000
    61.1294       29.60000
    61.1399       26.60000
    61.1505       28.60000
    61.1610       35.70000
    61.1715       26.60000
    61.1820       31.70000
    61.1926       27.60000
    61.2031       34.70000
    61.2136       33.70000
    61.2241       26.60000
    61.2346       35.70000
    61.2452       39.80000
    61.2557       26.60000
    61.2662       36.80000
    61.2767       40.80000
    61.2873       41.90000
    61.2978       54.10000
    61.3083       50.00000
    61.3188       37.80000
    61.3294       34.70000
    61.3399       22.50000
    61.3504       46.00000
    61.3609       42.90000
    61.3714       47.00000
    61.3820       42.90000
    61.3925       37.80000
    61.4030       42.90000
    61.4135       43.90000
    61.4241       71.50000
    61.4346       52.10000
    61.4451       77.60001
    61.4556       71.50000
    61.4661       70.50000
    61.4767       59.20000
    61.4872       61.30000
    61.4977       66.39999
    61.5082       71.50000
    61.5188       76.60000
    61.5293       78.60000
    61.5398      112.30000
    61.5503       99.10000
    61.5609      124.60001
    61.5714      115.40000
    61.5819      118.49999
    61.5924      111.30000
    61.6029      127.70000
    61.6135      132.79999
    61.6240      158.29999
    61.6345      160.30000
    61.6450      174.60001
    61.6556      168.50000
    61.6661      176.70000
    61.6766      195.09999
    61.6871      212.40001
    61.6976      205.30000
    61.7082      227.70000
    61.7187      260.40002
    61.7292      252.20001
    61.7397      268.60001
    61.7503      280.80002
    61.7608      309.40002
    61.7713      287.00000
    61.7818      314.50000
    61.7923      314.50000
    61.8029      343.10001
    61.8134      347.19998
    61.8239      368.70001
    61.8344      340.10001
    61.8450      355.39999
    61.8555      380.89999
    61.8660      374.79999
    61.8765      356.39999
    61.8871      379.89999
    61.8976      365.59998
    61.9081      414.59998
    61.9186      340.10001
    61.9291      388.10001
    61.9397      330.89999
    61.9502      350.29999
    61.9607      318.60001
    61.9712      324.79999
    61.9818      297.19998
    61.9923      313.50000
    62.0028      299.20001
    62.0133      265.50000
    62.0238      290.00000
    62.0344      293.10001
    62.0449      294.10001
    62.0554      305.39999
    62.0659      259.40002
    62.0765      249.20001
    62.0870      283.89999
    62.0975      319.60001
    62.1080      275.70001
    62.1185      283.89999
    62.1291      295.10001
    62.1396      276.79999
    62.1501      290.00000
    62.1606      247.09999
    62.1712      270.60001
    62.1817      262.50000
    62.1922      231.80000
    62.2027      235.89999
    62.2133      213.40001
    62.2238      214.50000
    62.2343      186.89999
    62.2448      153.20000
    62.2553      196.09999
    62.2659      155.20001
    62.2764      142.00000
    62.2869      146.00000
    62.2974      128.70000
    62.3080      126.60001
    62.3185      132.79999
    62.3290      120.50001
    62.3395       88.80000
    62.3500       94.00000
    62.3606       83.70000
    62.3711       84.80000
    62.3816       76.60000
    62.3921       55.10000
    62.4027       80.70000
    62.4132       83.70000
    62.4237       63.30000
    62.4342       65.40000
    62.4448       56.20000
    62.4553       71.50000
    62.4658       49.00000
    62.4763       49.00000
    62.4868       47.00000
    62.4974       53.10000
    62.5079       49.00000
    62.5184       43.90000
    62.5289       37.80000
    62.5395       49.00000
    62.5500       35.70000
    62.5605       34.70000
    62.5710       41.90000
    62.5815       36.80000
    62.5921       32.70000
    62.6026       32.70000
    62.6131       32.70000
    62.6236       40.80000
    62.6342       30.60000
    62.6447       29.60000
    62.6552       36.80000
    62.6657       23.50000
    62.6762       22.50000
    62.6868       32.70000
    62.6973       26.60000
    62.7078       18.40000
    62.7183       36.80000
    62.7289       31.70000
    62.7394       33.70000
    62.7499       31.70000
    62.7604       36.80000
    62.7710       17.40000
    62.7815       19.40000
    62.7920       19.40000
    62.8025       29.60000
    62.8130       13.30000
    62.8236       27.60000
    62.8341       27.60000
    62.8446       17.40000
    62.8551       24.50000
    62.8657       22.50000
    62.8762       23.50000
    62.8867       18.40000
    62.8972       19.40000
    62.9077       16.30000
    62.9183       32.70000
    62.9288       26.60000
    62.9393       22.50000
    62.9498       21.40000
    62.9604       25.50000
    62.9709       21.40000
    62.9814       21.40000
    62.9919       17.40000
    63.0025       13.30000
    63.0130       14.30000
    63.0235       20.40000
    63.0340       18.40000
    63.0445       16.30000
    63.0551       24.50000
    63.0656       19.40000
    63.0761       27.60000
    63.0866       21.40000
    63.0972       22.50000
    63.1077       20.40000
    63.1182       19.40000
    63.1287       28.60000
    63.1392       18.40000
    63.1498       20.40000
    63.1603       22.50000
    63.1708       11.20000
    63.1813       25.50000
    63.1919       22.50000
    63.2024       16.30000
    63.2129       16.30000
    63.2234       13.30000
    63.2339       18.40000
    63.2445       21.40000
    63.2550       18.40000
    63.2655       17.40000
    63.2760       15.30000
    63.2866       16.30000
    63.2971       17.40000
    63.3076       19.40000
    63.3181       18.40000
    63.3287       17.40000
    63.3392       29.60000
    63.3497       16.30000
    63.3602       26.60000
    63.3707       12.30000
    63.3813       22.50000
    63.3918       15.30000
    63.4023       16.30000
    63.4128       12.30000
    63.4234       17.40000
    63.4339       17.40000
    63.4444       23.50000
    63.4549       23.50000
    63.4654       21.40000
    63.4760       25.50000
    63.4865       18.40000
    63.4970       13.30000
    63.5075       13.30000
    63.5181       19.40000
    63.5286       19.40000
    63.5391       18.40000
    63.5496       21.40000
    63.5601       17.40000
    63.5707       25.50000
    63.5812       23.50000
    63.5917       21.40000
    63.6022       21.40000
    63.6128       21.40000
    63.6233       16.30000
    63.6338       18.40000
    63.6443       30.60000
    63.6549       23.50000
    63.6654       27.60000
    63.6759       14.30000
    63.6864       25.50000
    63.6969       30.60000
    63.7075       19.40000
    63.7180       13.30000
    63.7285       23.50000
    63.7390       23.50000
    63.7496       21.40000
    63.7601       32.70000
    63.7706       29.60000
    63.7811       29.60000
    63.7916       23.50000
    63.8022       24.50000
    63.8127       35.70000
    63.8232       21.40000
    63.8337       28.60000
    63.8443       19.40000
    63.8548       33.70000
    63.8653       30.60000
    63.8758       33.70000
    63.8864       43.90000
    63.8969       39.80000
    63.9074       48.00000
    63.9179       49.00000
    63.9284       41.90000
    63.9390       55.10000
    63.9495       51.10000
    63.9600       47.00000
    63.9705       70.50000
    63.9811       59.20000
    63.9916       57.20000
    64.0021       40.80000
    64.0126       58.20000
    64.0231       60.30000
    64.0337       52.10000
    64.0442       54.10000
    64.0547       50.00000
    64.0652       58.20000
    64.0758       63.30000
    64.0863       41.90000
    64.0968       53.10000
    64.1073       43.90000
    64.1178       54.10000
    64.1284       46.00000
    64.1389       46.00000
    64.1494       36.80000
    64.1599       46.00000
    64.1705       57.20000
    64.1810       37.80000
    64.1915       44.90000
    64.2020       28.60000
    64.2126       27.60000
    64.2231       33.70000
    64.2336       29.60000
    64.2441       23.50000
    64.2546       33.70000
    64.2652       32.70000
    64.2757       27.60000
    64.2862       31.70000
    64.2967       27.60000
    64.3073       27.60000
    64.3178       26.60000
    64.3283       31.70000
    64.3388       22.50000
    64.3493       36.80000
    64.3599       28.60000
    64.3704       26.60000
    64.3809       18.40000
    64.3914       23.50000
    64.4020       31.70000
    64.4125       18.40000
    64.4230       24.50000
    64.4335       26.60000
    64.4440       14.30000
    64.4546       17.40000
    64.4651       20.40000
    64.4756       25.50000
    64.4861       17.40000
    64.4967       22.50000
    64.5072       25.50000
    64.5177       19.40000
    64.5282       25.50000
    64.5388       20.40000
    64.5493       26.60000
    64.5598       19.40000
    64.5703       15.30000
    64.5808       31.70000
    64.5914       21.40000
    64.6019       29.60000
    64.6124       24.50000
    64.6229       23.50000
    64.6335       22.50000
    64.6440       30.60000
    64.6545       18.40000
    64.6650       27.60000
    64.6755       32.70000
    64.6861       22.50000
    64.6966       23.50000
    64.7071       27.60000
    64.7176       29.60000
    64.7282       28.60000
    64.7387       18.40000
    64.7492       22.50000
    64.7597       25.50000
    64.7703       27.60000
    64.7808       26.60000
    64.7913       21.40000
    64.8018       17.40000
    64.8123       26.60000
    64.8229       24.50000
    64.8334       18.40000
    64.8439       15.30000
    64.8544       33.70000
    64.8650       20.40000
    64.8755       24.50000
    64.8860       23.50000
    64.8965       16.30000
    64.9070       25.50000
    64.9176       12.30000
    64.9281       17.40000
    64.9386       12.30000
    64.9491       24.50000
    64.9597       14.30000
    64.9702       19.40000
    64.9807       23.50000
    64.9912       23.50000
    65.0017       21.40000
    65.0123       21.40000
    65.0228       16.30000
    65.0333       16.30000
    65.0438       14.30000
    65.0544       21.40000
    65.0649       23.50000
    65.0754       21.40000
    65.0859       21.40000
    65.0965       19.40000
    65.1070       22.50000
    65.1175       24.50000
    65.1280       13.30000
    65.1385       18.40000
    65.1491       18.40000
    65.1596       15.30000
    65.1701       19.40000
    65.1806       18.40000
    65.1912       15.30000
    65.2017       12.30000
    65.2122       24.50000
    65.2227       22.50000
    65.2332       28.60000
    65.2438       20.40000
    65.2543       19.40000
    65.2648       21.40000
    65.2753       24.50000
    65.2859       26.60000
    65.2964       21.40000
    65.3069       20.40000
    65.3174       22.50000
    65.3279       30.60000
    65.3385       22.50000
    65.3490       32.70000
    65.3595       31.70000
    65.3700       19.40000
    65.3806       27.60000
    65.3911       18.40000
    65.4016       23.50000
    65.4121       21.40000
    65.4227       31.70000
    65.4332       29.60000
    65.4437       18.40000
    65.4542       33.70000
    65.4647       32.70000
    65.4753       34.70000
    65.4858       28.60000
    65.4963       27.60000
    65.5068       34.70000
    65.5174       29.60000
    65.5279       23.50000
    65.5384       23.50000
    65.5489       30.60000
    65.5594       18.40000
    65.5700       22.50000
    65.5805       28.60000
    65.5910       30.60000
    65.6015       30.60000
    65.6121       34.70000
    65.6226       25.50000
    65.6331       26.60000
    65.6436       22.50000
    65.6542       29.60000
    65.6647       30.60000
    65.6752       33.70000
    65.6857       30.60000
    65.6962       28.60000
    65.7068       38.80000
    65.7173       35.70000
    65.7278       27.60000
    65.7383       27.60000
    65.7489       17.40000
    65.7594       27.60000
    65.7699       29.60000
    65.7804       29.60000
    65.7909       36.80000
    65.8015       36.80000
    65.8120       32.70000
    65.8225       32.70000
    65.8330       34.70000
    65.8436       38.80000
    65.8541       40.80000
    65.8646       44.90000
    65.8751       35.70000
    65.8856       41.90000
    65.8962       46.00000
    65.9067       36.80000
    65.9172       39.80000
    65.9277       65.40000
    65.9383       56.20000
    65.9488       55.10000
    65.9593       61.30000
    65.9698       50.00000
    65.9804       49.00000
    65.9909       67.40000
    66.0014       62.30000
    66.0119       51.10000
    66.0224       57.20000
    66.0330       59.20000
    66.0435       46.00000
    66.0540       60.30000
    66.0645       54.10000
    66.0751       57.20000
    66.0856       58.20000
    66.0961       56.20000
    66.1066       52.10000
    66.1171       60.30000
    66.1277       53.10000
    66.1382       54.10000
    66.1487       52.10000
    66.1592       61.30000
    66.1698       70.50000
    66.1803       59.20000
    66.1908       59.20000
    66.2013       62.30000
    66.2119       61.30000
    66.2224       77.60001
    66.2329       65.40000
    66.2434       64.30000
    66.2539       64.30000
    66.2645       94.00000
    66.2750       74.60000
    66.2855       98.00000
    66.2960       71.50000
    66.3066      108.30000
    66.3171      107.20000
    66.3276      106.20000
    66.3381      124.60001
    66.3486      115.40000
    66.3592       97.00000
    66.3697       89.90000
    66.3802      112.30000
    66.3907      101.10001
    66.4013      105.20000
    66.4118       89.90000
    66.4223      100.10001
    66.4328       81.70000
    66.4433       92.90000
    66.4539      107.20000
    66.4644       96.00000
    66.4749       77.60001
    66.4854       80.70000
    66.4960       90.90000
    66.5065       61.30000
    66.5170       65.40000
    66.5275       59.20000
    66.5381       62.30000
    66.5486       37.80000
    66.5591       59.20000
    66.5696       58.20000
    66.5801       38.80000
    66.5907       49.00000
    66.6012       52.10000
    66.6117       51.10000
    66.6222       38.80000
    66.6328       37.80000
    66.6433       47.00000
    66.6538       26.60000
    66.6643       31.70000
    66.6748       30.60000
    66.6854       29.60000
    66.6959       27.60000
    66.7064       32.70000
    66.7169       39.80000
    66.7275       29.60000
    66.7380       28.60000
    66.7485       30.60000
    66.7590       33.70000
    66.7695       24.50000
    66.7801       23.50000
    66.7906       21.40000
    66.8011       21.40000
    66.8116       25.50000
    66.8222       24.50000
    66.8327       20.40000
    66.8432       18.40000
    66.8537       31.70000
    66.8643       25.50000
    66.8748       27.60000
    66.8853       25.50000
    66.8958       32.70000
    66.9063       26.60000
    66.9169       21.40000
    66.9274       31.70000
    66.9379       13.30000
    66.9484       21.40000
    66.9590       25.50000
    66.9695       20.40000
    66.9800       13.30000
    66.9905       27.60000
    67.0010       24.50000
    67.0116       19.40000
    67.0221       24.50000
    67.0326       24.50000
    67.0431       32.70000
    67.0537       30.60000
    67.0642       24.50000
    67.0747       23.50000
    67.0852       32.70000
    67.0958       27.60000
    67.1063       36.80000
    67.1168       35.70000
    67.1273       32.70000
    67.1378       33.70000
    67.1484       36.80000
    67.1589       39.80000
    67.1694       42.90000
    67.1799       46.00000
    67.1905       37.80000
    67.2010       40.80000
    67.2115       47.00000
    67.2220       46.00000
    67.2325       42.90000
    67.2431       44.90000
    67.2536       47.00000
    67.2641       47.00000
    67.2746       46.00000
    67.2852       47.00000
    67.2957       53.10000
    67.3062       46.00000
    67.3167       46.00000
    67.3272       48.00000
    67.3378       51.10000
    67.3483       51.10000
    67.3588       59.20000
    67.3693       67.40000
    67.3799       78.60000
    67.3904       72.50000
    67.4009       89.90000
    67.4114       81.70000
    67.4220       82.70000
    67.4325       87.80000
    67.4430       86.80000
    67.4535       77.60001
    67.4640       87.80000
    67.4746       94.00000
    67.4851       90.90000
    67.4956       75.60000
    67.5061       95.00000
    67.5167       77.60001
    67.5272       92.90000
    67.5377      102.10001
    67.5482       95.00000
    67.5587       69.40000
    67.5693       83.70000
    67.5798       73.50000
    67.5903       81.70000
    67.6008       79.70000
    67.6114       91.90000
    67.6219       56.20000
    67.6324       70.50000
    67.6429       62.30000
    67.6534       60.30000
    67.6640       73.50000
    67.6745       62.30000
    67.6850       55.10000
    67.6955       49.00000
    67.7061       37.80000
    67.7166       49.00000
    67.7271       36.80000
    67.7376       39.80000
    67.7482       37.80000
    67.7587       48.00000
    67.7692       38.80000
    67.7797       39.80000
    67.7902       46.00000
    67.8008       34.70000
    67.8113       37.80000
    67.8218       29.60000
    67.8323       36.80000
    67.8429       33.70000
    67.8534       33.70000
    67.8639       26.60000
    67.8744       27.60000
    67.8849       35.70000
    67.8955       29.60000
    67.9060       32.70000
    67.9165       33.70000
    67.9270       34.70000
    67.9376       27.60000
    67.9481       38.80000
    67.9586       38.80000
    67.9691       28.60000
    67.9797       37.80000
    67.9902       37.80000
    68.0007       39.80000
    68.0112       33.70000
    68.0217       35.70000
    68.0323       33.70000
    68.0428       34.70000
    68.0533       32.70000
    68.0638       43.90000
    68.0744       23.50000
    68.0849       34.70000
    68.0954       39.80000
    68.1059       27.60000
    68.1164       41.90000
    68.1270       37.80000
    68.1375       38.80000
    68.1480       51.10000
    68.1585       37.80000
    68.1691       36.80000
    68.1796       39.80000
    68.1901       39.80000
    68.2006       40.80000
    68.2111       52.10000
    68.2217       49.00000
    68.2322       41.90000
    68.2427       39.80000
    68.2532       44.90000
    68.2638       42.90000
    68.2743       63.30000
    68.2848       39.80000
    68.2953       38.80000
    68.3059       42.90000
    68.3164       43.90000
    68.3269       35.70000
    68.3374       56.20000
    68.3479       50.00000
    68.3585       29.60000
    68.3690       32.70000
    68.3795       42.90000
    68.3900       40.80000
    68.4006       36.80000
    68.4111       36.80000
    68.4216       36.80000
    68.4321       34.70000
    68.4426       32.70000
    68.4532       35.70000
    68.4637       36.80000
    68.4742       40.80000
    68.4847       31.70000
    68.4953       36.80000
    68.5058       39.80000
    68.5163       31.70000
    68.5268       29.60000
    68.5373       21.40000
    68.5479       29.60000
    68.5584       31.70000
    68.5689       17.40000
    68.5794       26.60000
    68.5900       24.50000
    68.6005       26.60000
    68.6110       18.40000
    68.6215       25.50000
    68.6321       20.40000
    68.6426       15.30000
    68.6531       26.60000
    68.6636       26.60000
    68.6741       18.40000
    68.6847       27.60000
    68.6952       23.50000
    68.7057       25.50000
    68.7162       17.40000
    68.7268       16.30000
    68.7373       21.40000
    68.7478       24.50000
    68.7583       11.20000
    68.7688       20.40000
    68.7794       19.40000
    68.7899       22.50000
    68.8004       14.30000
    68.8109       21.40000
    68.8215       17.40000
    68.8320       22.50000
    68.8425       15.30000
    68.8530       31.70000
    68.8636       21.40000
    68.8741       20.40000
    68.8846       18.40000
    68.8951       22.50000
    68.9056       14.30000
    68.9162       18.40000
    68.9267       29.60000
    68.9372       17.40000
    68.9477       12.30000
    68.9583       11.20000
    68.9688       21.40000
    68.9793       29.60000
    68.9898       21.40000
    69.0003       18.40000
    69.0109       27.60000
    69.0214       18.40000
    69.0319       25.50000
    69.0424       18.40000
    69.0530       31.70000
    69.0635       16.30000
    69.0740       24.50000
    69.0845       15.30000
    69.0950       15.30000
    69.1056       18.40000
    69.1161       26.60000
    69.1266       28.60000
    69.1371       24.50000
    69.1477       25.50000
    69.1582       28.60000
    69.1687       26.60000
    69.1792       22.50000
    69.1898       23.50000
    69.2003       31.70000
    69.2108       14.30000
    69.2213       28.60000
    69.2318       33.70000
    69.2424       19.40000
    69.2529       23.50000
    69.2634       29.60000
    69.2739       31.70000
    69.2845       42.90000
    69.2950       38.80000
    69.3055       36.80000
    69.3160       25.50000
    69.3265       48.00000
    69.3371       41.90000
    69.3476       43.90000
    69.3581       35.70000
    69.3686       50.00000
    69.3792       47.00000
    69.3897       55.10000
    69.4002       55.10000
    69.4107       39.80000
    69.4212       63.30000
    69.4318       58.20000
    69.4423       46.00000
    69.4528       50.00000
    69.4633       66.39999
    69.4739       49.00000
    69.4844       48.00000
    69.4949       44.90000
    69.5054       63.30000
    69.5160       55.10000
    69.5265       60.30000
    69.5370       41.90000
    69.5475       42.90000
    69.5580       44.90000
    69.5686       33.70000
    69.5791       39.80000
    69.5896       42.90000
    69.6001       43.90000
    69.6107       36.80000
    69.6212       33.70000
    69.6317       40.80000
    69.6422       40.80000
    69.6527       50.00000
    69.6633       28.60000
    69.6738       35.70000
    69.6843       33.70000
    69.6948       26.60000
    69.7054       25.50000
    69.7159       33.70000
    69.7264       38.80000
    69.7369       36.80000
    69.7475       41.90000
    69.7580       32.70000
    69.7685       35.70000
    69.7790       29.60000
    69.7895       33.70000
    69.8001       38.80000
    69.8106       42.90000
    69.8211       40.80000
    69.8316       37.80000
    69.8422       40.80000
    69.8527       35.70000
    69.8632       48.00000
    69.8737       39.80000
    69.8842       54.10000
    69.8948       43.90000
    69.9053       46.00000
    69.9158       41.90000
    69.9263       62.30000
    69.9369       43.90000
    69.9474       61.30000
    69.9579       60.30000
    69.9684       67.40000
    69.9789       55.10000
    69.9895       49.00000
    70.0000       66.39999
    70.0105       77.60001
    70.0210       77.60001
    70.0316       90.90000
    70.0421       90.90000
    70.0526       87.80000
    70.0631       83.70000
    70.0737      107.20000
    70.0842      111.30000
    70.0947      106.20000
    70.1052      117.40000
    70.1157      120.50001
    70.1263      125.60001
    70.1368      128.70000
    70.1473      134.80000
    70.1578      131.70000
    70.1684      153.20000
    70.1789      144.00000
    70.1894      150.10001
    70.1999      144.00000
    70.2104      146.00000
    70.2210      148.09999
    70.2315      155.20001
    70.2420      142.00000
    70.2525      128.70000
    70.2631      130.70000
    70.2736      142.00000
    70.2841      130.70000
    70.2946      121.50000
    70.3052      133.80000
    70.3157      104.20000
    70.3262      104.20000
    70.3367       98.00000
    70.3472      103.10000
    70.3578       87.80000
    70.3683       64.30000
    70.3788       81.70000
    70.3893       74.60000
    70.3999       79.70000
    70.4104       68.40000
    70.4209       67.40000
    70.4314       72.50000
    70.4419       58.20000
    70.4525       59.20000
    70.4630       47.00000
    70.4735       60.30000
    70.4840       52.10000
    70.4946       58.20000
    70.5051       43.90000
    70.5156       56.20000
    70.5261       44.90000
    70.5366       34.70000
    70.5472       33.70000
    70.5577       29.60000
    70.5682       28.60000
    70.5787       39.80000
    70.5893       30.60000
    70.5998       38.80000
    70.6103       38.80000
    70.6208       28.60000
    70.6314       34.70000
    70.6419       31.70000
    70.6524       31.70000
    70.6629       38.80000
    70.6734       30.60000
    70.6840       31.70000
    70.6945       23.50000
    70.7050       17.40000
    70.7155       24.50000
    70.7261       31.70000
    70.7366       20.40000
    70.7471       23.50000
    70.7576       21.40000
    70.7681       28.60000
    70.7787       17.40000
    70.7892       22.50000
    70.7997       24.50000
    70.8102       26.60000
    70.8208       35.70000
    70.8313       18.40000
    70.8418       30.60000
    70.8523       27.60000
    70.8628       21.40000
    70.8734       18.40000
    70.8839       23.50000
    70.8944       20.40000
    70.9049       30.60000
    70.9155       23.50000
    70.9260       15.30000
    70.9365       25.50000
    70.9470       24.50000
    70.9576       23.50000
    70.9681       17.40000
    70.9786       21.40000
    70.9891       24.50000
    70.9996       20.40000
    71.0102       18.40000
    71.0207       12.30000
    71.0312       25.50000
    71.0417       24.50000
    71.0523       25.50000
    71.0628       16.30000
    71.0733       21.40000
    71.0838       17.40000
    71.0943       22.50000
    71.1049       26.60000
    71.1154       14.30000
    71.1259       28.60000
    71.1364       29.60000
    71.1470       17.40000
    71.1575       36.80000
    71.1680       22.50000
    71.1785       20.40000
    71.1891       24.50000
    71.1996       20.40000
    71.2101       29.60000
    71.2206       21.40000
    71.2311       29.60000
    71.2417       29.60000
    71.2522       27.60000
    71.2627       35.70000
    71.2732       36.80000
    71.2838       41.90000
    71.2943       35.70000
    71.3048       46.00000
    71.3153       33.70000
    71.3258       37.80000
    71.3364       49.00000
    71.3469       59.20000
    71.3574       41.90000
    71.3679       46.00000
    71.3785       62.30000
    71.3890       36.80000
    71.3995       52.10000
    71.4100       52.10000
    71.4205       50.00000
    71.4311       52.10000
    71.4416       62.30000
    71.4521       52.10000
    71.4626       57.20000
    71.4732       46.00000
    71.4837       68.40000
    71.4942       41.90000
    71.5047       53.10000
    71.5153       53.10000
    71.5258       52.10000
    71.5363       50.00000
    71.5468       61.30000
    71.5573       55.10000
    71.5679       58.20000
    71.5784       61.30000
    71.5889       50.00000
    71.5994       58.20000
    71.6100       47.00000
    71.6205       38.80000
    71.6310       44.90000
    71.6415       47.00000
    71.6520       52.10000
    71.6626       41.90000
    71.6731       48.00000
    71.6836       49.00000
    71.6941       35.70000
    71.7047       43.90000
    71.7152       38.80000
    71.7257       39.80000
    71.7362       36.80000
    71.7467       53.10000
    71.7573       46.00000
    71.7678       56.20000
    71.7783       42.90000
    71.7888       46.00000
    71.7994       37.80000
    71.8099       54.10000
    71.8204       41.90000
    71.8309       51.10000
    71.8415       41.90000
    71.8520       48.00000
    71.8625       44.90000
    71.8730       49.00000
    71.8835       63.30000
    71.8941       50.00000
    71.9046       65.40000
    71.9151       70.50000
    71.9256       53.10000
    71.9362       62.30000
    71.9467       60.30000
    71.9572       56.20000
    71.9677       58.20000
    71.9782       60.30000
    71.9888       73.50000
    71.9993       50.00000
    72.0098       60.30000
    72.0203       62.30000
    72.0309       64.30000
    72.0414       62.30000
    72.0519       78.60000
    72.0624       70.50000
    72.0730       74.60000
    72.0835       76.60000
    72.0940       67.40000
    72.1045       66.39999
    72.1150       69.40000
    72.1256       66.39999
    72.1361       87.80000
    72.1466       77.60001
    72.1571       70.50000
    72.1677       96.00000
    72.1782      106.20000
    72.1887      108.30000
    72.1992       99.10000
    72.2097       85.80000
    72.2203      111.30000
    72.2308      106.20000
    72.2413      105.20000
    72.2518      128.70000
    72.2624      120.50001
    72.2729      120.50001
    72.2834      132.79999
    72.2939      126.60001
    72.3044      118.49999
    72.3150      110.30000
    72.3255      147.09999
    72.3360      122.50000
    72.3465      144.00000
    72.3571      137.89999
    72.3676      136.80000
    72.3781      138.90001
    72.3886      127.70000
    72.3992      108.30000
    72.4097      151.10001
    72.4202      126.60001
    72.4307      133.80000
    72.4412      138.90001
    72.4518      103.10000
    72.4623      113.39999
    72.4728      104.20000
    72.4833      110.30000
    72.4939      106.20000
    72.5044       85.80000
    72.5149       99.10000
    72.5254       80.70000
    72.5359       89.90000
    72.5465       80.70000
    72.5570       68.40000
    72.5675       72.50000
    72.5780       81.70000
    72.5886       54.10000
    72.5991       66.39999
    72.6096       54.10000
    72.6201       60.30000
    72.6306       38.80000
    72.6412       51.10000
    72.6517       51.10000
    72.6622       56.20000
    72.6727       59.20000
    72.6833       48.00000
    72.6938       43.90000
    72.7043       41.90000
    72.7148       41.90000
    72.7254       36.80000
    72.7359       32.70000
    72.7464       34.70000
    72.7569       31.70000
    72.7674       37.80000
    72.7780       36.80000
    72.7885       32.70000
    72.7990       37.80000
    72.8095       32.70000
    72.8201       30.60000
    72.8306       25.50000
    72.8411       27.60000
    72.8516       28.60000
    72.8621       30.60000
    72.8727       33.70000
    72.8832       29.60000
    72.8937       28.60000
    72.9042       29.60000
    72.9148       32.70000
    72.9253       25.50000
    72.9358       31.70000
    72.9463       25.50000
    72.9569       22.50000
    72.9674       26.60000
    72.9779       24.50000
    72.9884       24.50000
    72.9989       25.50000
    73.0095       22.50000
    73.0200       27.60000
    73.0305       27.60000
    73.0410       23.50000
    73.0516       18.40000
    73.0621       19.40000
    73.0726       18.40000
    73.0831       21.40000
    73.0936       20.40000
    73.1042       26.60000
    73.1147       22.50000
    73.1252       27.60000
    73.1357       26.60000
    73.1463       19.40000
    73.1568       23.50000
    73.1673       26.60000
    73.1778       14.30000
    73.1883       23.50000
    73.1989       29.60000
    73.2094       26.60000
    73.2199       24.50000
    73.2304       31.70000
    73.2410       24.50000
    73.2515       16.30000
    73.2620       25.50000
    73.2725       33.70000
    73.2831       31.70000
    73.2936       25.50000
    73.3041       31.70000
    73.3146       20.40000
    73.3251       26.60000
    73.3357       38.80000
    73.3462       31.70000
    73.3567       26.60000
    73.3672       36.80000
    73.3778       26.60000
    73.3883       28.60000
    73.3988       37.80000
    73.4093       51.10000
    73.4198       33.70000
    73.4304       40.80000
    73.4409       40.80000
    73.4514       41.90000
    73.4619       41.90000
    73.4725       51.10000
    73.4830       46.00000
    73.4935       38.80000
    73.5040       53.10000
    73.5146       36.80000
    73.5251       46.00000
    73.5356       47.00000
    73.5461       48.00000
    73.5566       60.30000
    73.5672       48.00000
    73.5777       47.00000
    73.5882       55.10000
    73.5987       30.60000
    73.6093       47.00000
    73.6198       37.80000
    73.6303       46.00000
    73.6408       34.70000
    73.6513       41.90000
    73.6619       42.90000
    73.6724       44.90000
    73.6829       28.60000
    73.6934       42.90000
    73.7040       36.80000
    73.7145       36.80000
    73.7250       36.80000
    73.7355       41.90000
    73.7460       27.60000
    73.7566       38.80000
    73.7671       23.50000
    73.7776       28.60000
    73.7881       25.50000
    73.7987       38.80000
    73.8092       31.70000
    73.8197       23.50000
    73.8302       36.80000
    73.8408       32.70000
    73.8513       21.40000
    73.8618       26.60000
    73.8723       12.30000
    73.8828       23.50000
    73.8934       32.70000
    73.9039       23.50000
    73.9144       30.60000
    73.9249       25.50000
    73.9355       21.40000
    73.9460       25.50000
    73.9565       19.40000
    73.9670       27.60000
    73.9775       30.60000
    73.9881       24.50000
    73.9986       17.40000
    74.0091       21.40000
    74.0196       27.60000
    74.0302       16.30000
    74.0407       25.50000
    74.0512       26.60000
    74.0617       31.70000
    74.0722       26.60000
    74.0828       36.80000
    74.0933       46.00000
    74.1038       31.70000
    74.1143       38.80000
    74.1249       36.80000
    74.1354       35.70000
    74.1459       37.80000
    74.1564       38.80000
    74.1670       40.80000
    74.1775       39.80000
    74.1880       43.90000
    74.1985       52.10000
    74.2090       52.10000
    74.2196       65.40000
    74.2301       40.80000
    74.2406       56.20000
    74.2511       64.30000
    74.2617       50.00000
    74.2722       62.30000
    74.2827       72.50000
    74.2932       69.40000
    74.3037       71.50000
    74.3143       78.60000
    74.3248       79.70000
    74.3353       95.00000
    74.3458       81.70000
    74.3564      102.10001
    74.3669       98.00000
    74.3774       91.90000
    74.3879      120.50001
    74.3985       99.10000
    74.4090      101.10001
    74.4195       98.00000
    74.4300      105.20000
    74.4405       96.00000
    74.4511      107.20000
    74.4616      104.20000
    74.4721       94.00000
    74.4826       98.00000
    74.4932       76.60000
    74.5037       62.30000
    74.5142       78.60000
    74.5247       88.80000
    74.5352       69.40000
    74.5458       60.30000
    74.5563       64.30000
    74.5668       81.70000
    74.5773       57.20000
    74.5879       74.60000
    74.5984       50.00000
    74.6089       57.20000
    74.6194       56.20000
    74.6299       60.30000
    74.6405       49.00000
    74.6510       32.70000
    74.6615       44.90000
    74.6720       35.70000
    74.6826       35.70000
    74.6931       33.70000
    74.7036       34.70000
    74.7141       43.90000
    74.7247       41.90000
    74.7352       40.80000
    74.7457       28.60000
    74.7562       35.70000
    74.7667       34.70000
    74.7773       35.70000
    74.7878       33.70000
    74.7983       29.60000
    74.8088       35.70000
    74.8194       33.70000
    74.8299       34.70000
    74.8404       33.70000
    74.8509       24.50000
    74.8614       32.70000
    74.8720       27.60000
    74.8825       21.40000
    74.8930       22.50000
    74.9035       32.70000
    74.9141       32.70000
    74.9246       21.40000
    74.9351       32.70000
    74.9456       30.60000
    74.9561       27.60000
    74.9667       24.50000
    74.9772       32.70000
    74.9877       26.60000
    74.9982       30.60000
    75.0088       20.40000
    75.0193       39.80000
    75.0298       23.50000
    75.0403       39.80000
    75.0509       24.50000
    75.0614       33.70000
    75.0719       35.70000
    75.0824       35.70000
    75.0929       43.90000
    75.1035       36.80000
    75.1140       26.60000
    75.1245       34.70000
    75.1350       31.70000
    75.1456       38.80000
    75.1561       33.70000
    75.1666       24.50000
    75.1771       31.70000
    75.1876       32.70000
    75.1982       25.50000
    75.2087       32.70000
    75.2192       35.70000
    75.2297       27.60000
    75.2403       32.70000
    75.2508       32.70000
    75.2613       28.60000
    75.2718       24.50000
    75.2824       29.60000
    75.2929       24.50000
    75.3034       32.70000
    75.3139       19.40000
    75.3244       37.80000
    75.3350       22.50000
    75.3455       31.70000
    75.3560       24.50000
    75.3665       23.50000
    75.3771       21.40000
    75.3876       27.60000
    75.3981       32.70000
    75.4086       34.70000
    75.4191       24.50000
    75.4297       26.60000
    75.4402       41.90000
    75.4507       20.40000
    75.4612       20.40000
    75.4718       43.90000
    75.4823       29.60000
    75.4928       23.50000
    75.5033       36.80000
    75.5138       30.60000
    75.5244       35.70000
    75.5349       32.70000
    75.5454       25.50000
    75.5559       28.60000
    75.5665       30.60000
    75.5770       33.70000
    75.5875       25.50000
    75.5980       32.70000
    75.6086       38.80000
    75.6191       37.80000
    75.6296       30.60000
    75.6401       32.70000
    75.6506       37.80000
    75.6612       47.00000
    75.6717       42.90000
    75.6822       38.80000
    75.6927       39.80000
    75.7033       33.70000
    75.7138       51.10000
    75.7243       31.70000
    75.7348       43.90000
    75.7453       26.60000
    75.7559       38.80000
    75.7664       36.80000
    75.7769       34.70000
    75.7874       44.90000
    75.7980       30.60000
    75.8085       36.80000
    75.8190       31.70000
    75.8295       27.60000
    75.8400       35.70000
    75.8506       43.90000
    75.8611       39.80000
    75.8716       36.80000
    75.8821       33.70000
    75.8927       48.00000
    75.9032       26.60000
    75.9137       27.60000
    75.9242       30.60000
    75.9348       33.70000
    75.9453       43.90000
    75.9558       33.70000
    75.9663       33.70000
    75.9768       42.90000
    75.9874       39.80000
    75.9979       22.50000
    76.0084       35.70000
    76.0189       38.80000
    76.0295       37.80000
    76.0400       31.70000
    76.0505       28.60000
    76.0610       36.80000
    76.0715       35.70000
    76.0821       33.70000
    76.0926       40.80000
    76.1031       33.70000
    76.1136       34.70000
    76.1242       31.70000
    76.1347       30.60000
    76.1452       26.60000
    76.1557       30.60000
    76.1663       39.80000
    76.1768       27.60000
    76.1873       39.80000
    76.1978       35.70000
    76.2083       29.60000
    76.2189       41.90000
    76.2294       38.80000
    76.2399       28.60000
    76.2504       32.70000
    76.2610       26.60000
    76.2715       31.70000
    76.2820       26.60000
    76.2925       19.40000
    76.3030       34.70000
    76.3136       33.70000
    76.3241       29.60000
    76.3346       17.40000
    76.3451       33.70000
    76.3557       22.50000
    76.3662       21.40000
    76.3767       33.70000
    76.3872       23.50000
    76.3977       17.40000
    76.4083       25.50000
    76.4188       20.40000
    76.4293       32.70000
    76.4398       17.40000
    76.4504       27.60000
    76.4609       18.40000
    76.4714       26.60000
    76.4819       20.40000
    76.4925       25.50000
    76.5030       22.50000
    76.5135       23.50000
    76.5240       20.40000
    76.5345       26.60000
    76.5451       10.20000
    76.5556       18.40000
    76.5661       16.30000
    76.5766       22.50000
    76.5872       13.30000
    76.5977       22.50000
    76.6082       25.50000
    76.6187       21.40000
    76.6292       12.30000
    76.6398       20.40000
    76.6503       12.30000
    76.6608       12.30000
    76.6713       23.50000
    76.6819       15.30000
    76.6924       20.40000
    76.7029       13.30000
    76.7134       14.30000
    76.7240       20.40000
    76.7345       17.40000
    76.7450       18.40000
    76.7555       21.40000
    76.7660       19.40000
    76.7766       14.30000
    76.7871       15.30000
    76.7976       17.40000
    76.8081       16.30000
    76.8187       14.30000
    76.8292       10.20000
    76.8397       16.30000
    76.8502       14.30000
    76.8607        9.20000
    76.8713       16.30000
    76.8818       13.30000
    76.8923       19.40000
    76.9028       10.20000
    76.9134       18.40000
    76.9239       11.20000
    76.9344       13.30000
    76.9449       16.30000
    76.9554       11.20000
    76.9660       12.30000
    76.9765       12.30000
    76.9870       13.30000
    76.9975       13.30000
    77.0081       16.30000
    77.0186       18.40000
    77.0291       23.50000
    77.0396       21.40000
    77.0502       28.60000
    77.0607       18.40000
    77.0712       16.30000
    77.0817       18.40000
    77.0922       17.40000
    77.1028       23.50000
    77.1133       15.30000
    77.1238       24.50000
    77.1343       22.50000
    77.1449       28.60000
    77.1554       15.30000
    77.1659       23.50000
    77.1764       21.40000
    77.1869       18.40000
    77.1975       26.60000
    77.2080       23.50000
    77.2185       23.50000
    77.2290       20.40000
    77.2396       22.50000
    77.2501       20.40000
    77.2606       23.50000
    77.2711       25.50000
    77.2816       24.50000
    77.2922       33.70000
    77.3027       26.60000
    77.3132       32.70000
    77.3237       23.50000
    77.3343       30.60000
    77.3448       28.60000
    77.3553       20.40000
    77.3658       29.60000
    77.3764       36.80000
    77.3869       33.70000
    77.3974       22.50000
    77.4079       31.70000
    77.4184       27.60000
    77.4290       27.60000
    77.4395       17.40000
    77.4500       37.80000
    77.4605       37.80000
    77.4711       38.80000
    77.4816       25.50000
    77.4921       43.90000
    77.5026       26.60000
    77.5131       39.80000
    77.5237       32.70000
    77.5342       44.90000
    77.5447       32.70000
    77.5552       28.60000
    77.5658       44.90000
    77.5763       43.90000
    77.5868       32.70000
    77.5973       49.00000
    77.6079       42.90000
    77.6184       56.20000
    77.6289       44.90000
    77.6394       61.30000
    77.6499       50.00000
    77.6605       50.00000
    77.6710       49.00000
    77.6815       42.90000
    77.6920       50.00000
    77.7026       69.40000
    77.7131       47.00000
    77.7236       55.10000
    77.7341       51.10000
    77.7446       73.50000
    77.7552       64.30000
    77.7657       69.40000
    77.7762       55.10000
    77.7867       78.60000
    77.7973       72.50000
    77.8078       68.40000
    77.8183       79.70000
    77.8288       72.50000
    77.8393       73.50000
    77.8499       66.39999
    77.8604       87.80000
    77.8709       79.70000
    77.8814       84.80000
    77.8920       63.30000
    77.9025       99.10000
    77.9130       75.60000
    77.9235       68.40000
    77.9341       74.60000
    77.9446       85.80000
    77.9551       74.60000
    77.9656       74.60000
    77.9761       79.70000
    77.9867       92.90000
    77.9972       77.60001
    78.0077       65.40000
    78.0182       68.40000
    78.0288       59.20000
    78.0393       57.20000
    78.0498       61.30000
    78.0603       77.60001
    78.0708       44.90000
    78.0814       54.10000
    78.0919       59.20000
    78.1024       54.10000
    78.1129       60.30000
    78.1235       67.40000
    78.1340       50.00000
    78.1445       50.00000
    78.1550       49.00000
    78.1655       47.00000
    78.1761       42.90000
    78.1866       44.90000
    78.1971       46.00000
    78.2076       47.00000
    78.2182       30.60000
    78.2287       32.70000
    78.2392       32.70000
    78.2497       29.60000
    78.2603       35.70000
    78.2708       33.70000
    78.2813       32.70000
    78.2918       38.80000
    78.3023       31.70000
    78.3129       24.50000
    78.3234       27.60000
    78.3339       18.40000
    78.3444       35.70000
    78.3550       31.70000
    78.3655       35.70000
    78.3760       21.40000
    78.3865       23.50000
    78.3970       25.50000
    78.4076       19.40000
    78.4181       27.60000
    78.4286       24.50000
    78.4391       28.60000
    78.4497       19.40000
    78.4602       24.50000
    78.4707       27.60000
    78.4812       15.30000
    78.4918       28.60000
    78.5023       24.50000
    78.5128       13.30000
    78.5233       13.30000
    78.5338       11.20000
    78.5444       22.50000
    78.5549       21.40000
    78.5654       18.40000
    78.5759       22.50000
    78.5865       17.40000
    78.5970       22.50000
    78.6075       29.60000
    78.6180       17.40000
    78.6285       18.40000
    78.6391       21.40000
    78.6496       12.30000
    78.6601       13.30000
    78.6706       17.40000
    78.6812       25.50000
    78.6917       17.40000
    78.7022       15.30000
    78.7127       12.30000
    78.7232       15.30000
    78.7338       15.30000
    78.7443       22.50000
    78.7548       14.30000
    78.7653       17.40000
    78.7759       22.50000
    78.7864       16.30000
    78.7969       16.30000
    78.8074       17.40000
    78.8180       14.30000
    78.8285       13.30000
    78.8390       14.30000
    78.8495       12.30000
    78.8600       16.30000
    78.8706        9.20000
    78.8811       19.40000
    78.8916       16.30000
    78.9021       19.40000
    78.9127       22.50000
    78.9232       13.30000
    78.9337       20.40000
    78.9442       10.20000
    78.9547       15.30000
    78.9653       17.40000
    78.9758       25.50000
    78.9863       14.30000
    78.9968       16.30000
    79.0074       15.30000
    79.0179       10.20000
    79.0284       21.40000
    79.0389       10.20000
    79.0494       18.40000
    79.0600       15.30000
    79.0705       11.20000
    79.0810       11.20000
    79.0915       19.40000
    79.1021       16.30000
    79.1126       15.30000
    79.1231       11.20000
    79.1336       18.40000
    79.1442       14.30000
    79.1547       16.30000
    79.1652       11.20000
    79.1757       11.20000
    79.1862       18.40000
    79.1968        5.10000
    79.2073       13.30000
    79.2178       15.30000
    79.2283        6.10000
    79.2389       16.30000
    79.2494       15.30000
    79.2599       18.40000
    79.2704       15.30000
    79.2809       12.30000
    79.2915       14.30000
    79.3020       18.40000
    79.3125       13.30000
    79.3230       17.40000
    79.3336       13.30000
    79.3441       15.30000
    79.3546       18.40000
    79.3651       18.40000
    79.3757       13.30000
    79.3862       18.40000
    79.3967       13.30000
    79.4072       20.40000
    79.4177       23.50000
    79.4283       13.30000
    79.4388       15.30000
    79.4493       17.40000
    79.4598       14.30000
    79.4704       18.40000
    79.4809       14.30000
    79.4914       18.40000
    79.5019       10.20000
    79.5124       12.30000
    79.5230       13.30000
    79.5335       15.30000
    79.5440       15.30000
    79.5545       15.30000
    79.5651       11.20000
    79.5756       13.30000
    79.5861       12.30000
    79.5966       17.40000
    79.6071       18.40000
    79.6177       11.20000
    79.6282       14.30000
    79.6387       10.20000
    79.6492       19.40000
    79.6598       23.50000
    79.6703       17.40000
    79.6808        8.20000
    79.6913       11.20000
    79.7019       15.30000
    79.7124       21.40000
    79.7229       12.30000
    79.7334       20.40000
    79.7439       20.40000
    79.7545       19.40000
    79.7650       15.30000
    79.7755       12.30000
    79.7860       18.40000
    79.7966       19.40000
    79.8071       17.40000
    79.8176       21.40000
    79.8281       28.60000
    79.8386       20.40000
    79.8492       29.60000
    79.8597       23.50000
    79.8702       15.30000
    79.8807       20.40000
    79.8913       22.50000
    79.9018       24.50000
    79.9123       20.40000
    79.9228       24.50000
    79.9333       15.30000
    79.9439       24.50000
    79.9544       18.40000
    79.9649       20.40000
    79.9754       14.30000
    79.9860       18.40000
    79.9965       18.40000
    80.0070       28.60000
